338.4599	42
338.57993	41
338.69995	44
338.81998	44
338.94	39
339.06003	40
339.18006	42
339.3001	43
339.42013	42
339.54017	41
339.66021	41
339.78024	41
339.90029	40
340.02033	41
340.14037	45
340.26042	42
340.38047	41
340.50052	40
340.62057	40
340.74062	41
340.86068	40
340.98073	37
341.10079	40
341.22085	41
341.34091	47
341.46098	33
341.58104	45
341.70111	41
341.82117	46
341.94124	36
342.06132	42
342.18139	45
342.30146	42
342.42154	40
342.54162	40
342.6617	33
342.78178	46
342.90186	44
343.02195	43
343.14204	39
343.26212	40
343.38221	44
343.50231	43
343.6224	48
343.74249	40
343.86259	37
343.98269	42
344.10279	42
344.22289	42
344.34299	40
344.4631	45
344.58321	40
344.70331	39
344.82342	38
344.94354	36
345.06365	40
345.18376	41
345.30388	38
345.424	45
345.54412	39
345.66424	44
345.78436	37
345.90449	40
346.02462	41
346.14474	42
346.26487	41
346.38501	42
346.50514	43
346.62527	38
346.74541	37
346.86555	38
346.98569	37
347.10583	37
347.22597	45
347.34612	41
347.46627	44
347.58641	34
347.70656	28
347.82672	43
347.94687	41
348.06702	42
348.18718	35
348.30734	38
348.4275	37
348.54766	40
348.66782	41
348.78799	37
348.90815	45
349.02832	7
349.14849	44
349.26866	35
349.38884	40
349.50901	38
349.62919	37
349.74937	37
349.86955	38
349.98973	40
350.10991	38
350.23009	40
350.35028	35
350.47047	35
350.59066	42
350.71085	46
350.83104	44
350.95124	33
351.07143	44
351.19163	38
351.31183	41
351.43203	38
351.55223	41
351.67244	34
351.79264	35
351.91285	41
352.03306	41
352.15327	45
352.27348	45
352.3937	36
352.51391	37
352.63413	44
352.75435	40
352.87457	36
352.99479	45
353.11501	36
353.23524	44
353.35547	41
353.47569	42
353.59592	41
353.71616	40
353.83639	45
353.95663	42
354.07686	37
354.1971	39
354.31734	40
354.43758	40
354.55783	42
354.67807	31
354.79832	46
354.91856	36
355.03881	41
355.15907	39
355.27932	38
355.39957	38
355.51983	43
355.64009	40
355.76035	40
355.88061	41
356.00087	42
356.12114	44
356.2414	37
356.36167	42
356.48194	39
356.60221	43
356.72248	37
356.84275	39
356.96303	39
357.08331	42
357.20359	47
357.32387	42
357.44415	39
357.56443	37
357.68472	43
357.805	43
357.92529	39
358.04558	39
358.16587	45
358.28617	41
358.40646	39
358.52676	42
358.64706	43
358.76736	42
358.88766	38
359.00796	46
359.12827	41
359.24857	43
359.36888	36
359.48919	42
359.6095	42
359.72981	40
359.85013	39
359.97044	40
360.09076	41
360.21108	41
360.3314	41
360.45172	39
360.57204	42
360.69237	39
360.8127	39
360.93302	38
361.05335	38
361.17369	41
361.29402	39
361.41435	40
361.53469	41
361.65503	39
361.77537	40
361.89571	44
362.01605	43
362.1364	41
362.25674	43
362.37709	37
362.49744	35
362.61779	45
362.73814	39
362.8585	40
362.97885	48
363.09921	34
363.21957	37
363.33993	34
363.46029	38
363.58065	40
363.70102	40
363.82138	45
363.94175	41
364.06212	32
364.18249	36
364.30286	35
364.42324	42
364.54361	38
364.66399	41
364.78437	41
364.90475	35
365.02513	39
365.14552	34
365.2659	43
365.38629	36
365.50668	42
365.62707	34
365.74746	47
365.86785	41
365.98825	38
366.10864	17
366.22904	38
366.34944	45
366.46984	39
366.59025	36
366.71065	37
366.83106	35
366.95146	36
367.07187	33
367.19228	43
367.31269	36
367.43311	32
367.55352	35
367.67394	37
367.79436	37
367.91478	34
368.0352	41
368.15562	38
368.27605	39
368.39647	39
368.5169	42
368.63733	36
368.75776	39
368.87819	35
368.99863	35
369.11906	32
369.2395	34
369.35994	37
369.48038	37
369.60082	33
369.72126	38
369.84171	36
369.96215	36
370.0826	33
370.20305	36
370.3235	34
370.44395	38
370.56441	34
370.68486	38
370.80532	34
370.92578	36
371.04624	39
371.1667	40
371.28716	39
371.40763	34
371.52809	40
371.64856	33
371.76903	39
371.8895	34
372.00997	30
372.13045	38
372.25092	36
372.3714	35
372.49188	36
372.61236	39
372.73284	37
372.85332	38
372.97381	33
373.09429	36
373.21478	39
373.33527	36
373.45576	33
373.57625	35
373.69675	32
373.81724	37
373.93774	33
374.05824	37
374.17874	34
374.29924	35
374.41974	35
374.54025	31
374.66076	28
374.78126	29
374.90177	35
375.02228	36
375.1428	36
375.26331	38
375.38382	33
375.50434	31
375.62486	30
375.74538	35
375.8659	31
375.98642	35
376.10695	38
376.22747	34
376.348	36
376.46853	34
376.58906	36
376.70959	33
376.83013	33
376.95066	39
377.0712	33
377.19174	32
377.31228	29
377.43282	34
377.55336	38
377.67391	33
377.79445	31
377.915	35
378.03555	30
378.1561	29
378.27665	29
378.3972	29
378.51776	38
378.63831	31
378.75887	35
378.87943	32
378.99999	25
379.12055	37
379.24112	35
379.36168	33
379.48225	26
379.60282	31
379.72339	32
379.84396	29
379.96453	30
380.08511	38
380.20568	33
380.32626	33
380.44684	37
380.56742	33
380.688	26
380.80858	37
380.92917	31
381.04975	31
381.17034	26
381.29093	28
381.41152	32
381.53211	35
381.65271	29
381.7733	32
381.8939	29
382.0145	26
382.1351	29
382.2557	34
382.3763	30
382.49691	29
382.61751	39
382.73812	22
382.85873	31
382.97934	28
383.09995	26
383.22056	28
383.34118	32
383.46179	35
383.58241	30
383.70303	32
383.82365	30
383.94427	27
384.0649	27
384.18552	25
384.30615	31
384.42678	24
384.54741	21
384.66804	30
384.78867	26
384.9093	27
385.02994	29
385.15058	31
385.27121	30
385.39185	27
385.5125	27
385.63314	31
385.75378	31
385.87443	30
385.99508	26
386.11573	29
386.23638	25
386.35703	28
386.47768	23
386.59833	26
386.71899	29
386.83965	23
386.96031	29
387.08097	28
387.20163	27
387.32229	20
387.44296	24
387.56362	20
387.68429	25
387.80496	28
387.92563	24
388.0463	30
388.16698	20
388.28765	27
388.40833	25
388.52901	30
388.64969	27
388.77037	21
388.89105	27
389.01173	23
389.13242	26
389.25311	26
389.3738	27
389.49448	22
389.61518	25
389.73587	24
389.85656	20
389.97726	35
390.09796	21
390.21865	21
390.33935	27
390.46006	26
390.58076	25
390.70146	19
390.82217	19
390.94288	24
391.06358	22
391.18429	24
391.30501	24
391.42572	23
391.54643	19
391.66715	21
391.78787	21
391.90859	26
392.02931	22
392.15003	26
392.27075	20
392.39147	23
392.5122	21
392.63293	23
392.75366	24
392.87439	27
392.99512	19
393.11585	23
393.23659	16
393.35732	25
393.47806	25
393.5988	17
393.71954	25
393.84028	25
393.96103	23
394.08177	20
394.20252	21
394.32326	24
394.44401	20
394.56476	21
394.68552	22
394.80627	18
394.92702	26
395.04778	24
395.16854	21
395.2893	26
395.41006	21
395.53082	26
395.65158	21
395.77235	16
395.89311	21
396.01388	18
396.13465	26
396.25542	19
396.37619	21
396.49697	21
396.61774	17
396.73852	23
396.85929	23
396.98007	20
397.10085	21
397.22163	20
397.34242	25
397.4632	21
397.58399	21
397.70478	18
397.82557	27
397.94636	21
398.06715	20
398.18794	20
398.30874	17
398.42953	24
398.55033	20
398.67113	20
398.79193	17
398.91273	20
399.03353	19
399.15434	21
399.27514	15
399.39595	20
399.51676	21
399.63757	23
399.75838	21
399.87919	27
400.00001	18
400.12082	21
400.24164	19
400.36246	18
400.48328	17
400.6041	19
400.72492	22
400.84575	14
400.96657	25
401.0874	20
401.20823	19
401.32906	20
401.44989	19
401.57072	24
401.69156	20
401.81239	14
401.93323	19
402.05407	22
402.17491	19
402.29575	23
402.41659	29
402.53744	14
402.65828	21
402.77913	19
402.89998	19
403.02083	22
403.14168	24
403.26253	21
403.38338	17
403.50424	19
403.62509	17
403.74595	18
403.86681	17
403.98767	16
404.10853	19
404.2294	22
404.35026	17
404.47113	15
404.59199	20
404.71286	21
404.83373	20
404.95461	16
405.07548	21
405.19635	21
405.31723	23
405.43811	22
405.55898	20
405.67986	15
405.80075	21
405.92163	20
406.04251	20
406.1634	20
406.28429	21
406.40517	21
406.52606	21
406.64695	21
406.76785	22
406.88874	17
407.00964	22
407.13053	20
407.25143	16
407.37233	18
407.49323	17
407.61413	16
407.73504	22
407.85594	18
407.97685	24
408.09775	15
408.21866	17
408.33957	21
408.46048	20
408.5814	17
408.70231	16
408.82323	21
408.94414	17
409.06506	17
409.18598	21
409.3069	17
409.42783	15
409.54875	15
409.66968	16
409.7906	18
409.91153	20
410.03246	21
410.15339	12
410.27432	21
410.39526	14
410.51619	21
410.63713	17
410.75806	20
410.879	19
410.99994	16
411.12088	20
411.24183	14
411.36277	21
411.48372	14
411.60466	22
411.72561	21
411.84656	14
411.96751	17
412.08847	15
412.20942	14
412.33037	20
412.45133	17
412.57229	16
412.69325	25
412.81421	16
412.93517	21
413.05613	19
413.1771	16
413.29806	23
413.41903	16
413.54	22
413.66097	14
413.78194	12
413.90291	23
414.02389	17
414.14486	20
414.26584	18
414.38682	15
414.5078	19
414.62878	17
414.74976	21
414.87074	18
414.99173	14
415.11271	20
415.2337	20
415.35469	16
415.47568	15
415.59667	20
415.71766	21
415.83866	19
415.95965	21
416.08065	18
416.20165	18
416.32265	19
416.44365	18
416.56465	15
416.68565	26
416.80666	18
416.92766	18
417.04867	19
417.16968	20
417.29069	24
417.4117	16
417.53271	14
417.65373	22
417.77474	20
417.89576	21
418.01678	22
418.1378	17
418.25882	18
418.37984	19
418.50086	18
418.62189	24
418.74291	16
418.86394	21
418.98497	23
419.106	17
419.22703	16
419.34806	15
419.4691	19
419.59013	15
419.71117	20
419.83221	18
419.95325	22
420.07429	18
420.19533	16
420.31637	20
420.43741	19
420.55846	15
420.67951	19
420.80056	20
420.92161	13
421.04266	21
421.16371	19
421.28476	15
421.40582	18
421.52687	16
421.64793	20
421.76899	16
421.89005	17
422.01111	20
422.13217	19
422.25324	13
422.3743	16
422.49537	18
422.61644	16
422.73751	17
422.85858	17
422.97965	14
423.10072	17
423.2218	18
423.34287	23
423.46395	18
423.58503	15
423.70611	19
423.82719	15
423.94827	19
424.06935	20
424.19044	20
424.31152	14
424.43261	20
424.5537	19
424.67479	17
424.79588	16
424.91697	13
425.03807	13
425.15916	22
425.28026	22
425.40136	23
425.52245	24
425.64355	20
425.76466	20
425.88576	16
426.00686	13
426.12797	15
426.24908	19
426.37018	18
426.49129	20
426.6124	20
426.73351	17
426.85463	17
426.97574	26
427.09686	16
427.21797	21
427.33909	16
427.46021	17
427.58133	18
427.70246	22
427.82358	25
427.9447	17
428.06583	15
428.18696	20
428.30808	18
428.42921	16
428.55035	23
428.67148	18
428.79261	17
428.91375	16
429.03488	14
429.15602	16
429.27716	17
429.3983	24
429.51944	15
429.64058	15
429.76173	14
429.88287	18
430.00402	23
430.12516	22
430.24631	16
430.36746	12
430.48861	11
430.60977	15
430.73092	14
430.85208	15
430.97323	18
431.09439	19
431.21555	19
431.33671	20
431.45787	18
431.57903	15
431.7002	26
431.82136	22
431.94253	22
432.0637	23
432.18487	22
432.30604	23
432.42721	12
432.54838	14
432.66955	21
432.79073	27
432.91191	17
433.03308	19
433.15426	17
433.27544	19
433.39662	13
433.51781	22
433.63899	12
433.76018	20
433.88136	24
434.00255	19
434.12374	16
434.24493	22
434.36612	18
434.48731	24
434.60851	21
434.7297	20
434.8509	16
434.9721	24
435.0933	23
435.2145	15
435.3357	24
435.4569	15
435.57811	16
435.69931	20
435.82052	24
435.94173	21
436.06293	18
436.18414	15
436.30536	21
436.42657	22
436.54778	20
436.669	23
436.79021	24
436.91143	20
437.03265	16
437.15387	19
437.27509	23
437.39631	15
437.51754	21
437.63876	19
437.75999	23
437.88122	30
438.00245	25
438.12368	17
438.24491	7
438.36614	21
438.48737	13
438.60861	17
438.72984	17
438.85108	21
438.97232	18
439.09356	22
439.2148	27
439.33604	7
439.45729	24
439.57853	18
439.69978	20
439.82102	15
439.94227	14
440.06352	20
440.18477	14
440.30602	17
440.42728	24
440.54853	16
440.66979	20
440.79104	22
440.9123	22
441.03356	21
441.15482	16
441.27608	16
441.39735	23
441.51861	18
441.63988	27
441.76114	26
441.88241	14
442.00368	15
442.12495	8
442.24622	21
442.36749	12
442.48877	21
442.61004	10
442.73132	29
442.8526	19
442.97388	20
443.09516	26
443.21644	19
443.33772	16
443.459	20
443.58029	14
443.70157	19
443.82286	26
443.94415	23
444.06544	21
444.18673	18
444.30802	20
444.42931	23
444.55061	19
444.6719	33
444.7932	10
444.9145	23
445.0358	18
445.1571	27
445.2784	24
445.3997	11
445.52101	16
445.64231	23
445.76362	12
445.88492	23
446.00623	23
446.12754	24
446.24885	19
446.37017	15
446.49148	16
446.61279	21
446.73411	20
446.85543	24
446.97675	27
447.09807	19
447.21939	14
447.34071	29
447.46203	21
447.58335	30
447.70468	22
447.82601	24
447.94733	24
448.06866	28
448.18999	17
448.31132	23
448.43266	23
448.55399	22
448.67533	20
448.79666	17
448.918	26
449.03934	13
449.16068	21
449.28202	19
449.40336	13
449.5247	24
449.64605	27
449.76739	16
449.88874	23
450.01009	12
450.13144	16
450.25279	16
450.37414	14
450.49549	12
450.61684	23
450.7382	22
450.85955	24
450.98091	12
451.10227	27
451.22363	19
451.34499	27
451.46635	28
451.58771	14
451.70908	19
451.83044	31
451.95181	15
452.07318	10
452.19455	23
452.31592	24
452.43729	11
452.55866	19
452.68003	5
452.80141	16
452.92278	26
453.04416	28
453.16554	21
453.28692	33
453.4083	25
453.52968	20
453.65106	29
453.77245	21
453.89383	32
454.01522	16
454.13661	18
454.25799	17
454.37938	21
454.50077	28
454.62217	16
454.74356	29
454.86495	12
454.98635	29
455.10775	16
455.22914	21
455.35054	27
455.47194	28
455.59334	13
455.71475	25
455.83615	16
455.95755	11
456.07896	26
456.20037	34
456.32177	24
456.44318	29
456.56459	24
456.68601	15
456.80742	21
456.92883	20
457.05025	25
457.17166	23
457.29308	20
457.4145	16
457.53592	34
457.65734	24
457.77876	22
457.90018	15
458.02161	18
458.14303	22
458.26446	18
458.38589	14
458.50732	23
458.62875	29
458.75018	24
458.87161	26
458.99304	16
459.11448	19
459.23591	30
459.35735	25
459.47878	30
459.60022	27
459.72166	15
459.8431	23
459.96455	26
460.08599	25
460.20743	17
460.32888	25
460.45033	32
460.57177	17
460.69322	28
460.81467	25
460.93612	19
461.05758	17
461.17903	19
461.30048	17
461.42194	24
461.5434	25
461.66486	24
461.78631	19
461.90777	36
462.02924	26
