537.66633	92
537.78794	73
537.90956	80
538.03118	80
538.1528	79
538.27442	75
538.39605	85
538.51767	81
538.6393	76
538.76093	84
538.88256	81
539.00419	90
539.12583	84
539.24746	82
539.3691	68
539.49073	91
539.61237	86
539.73402	76
539.85566	84
539.9773	59
540.09895	75
540.22059	63
540.34224	60
540.46389	71
540.58555	66
540.7072	75
540.82885	58
540.95051	65
541.07217	60
541.19383	60
541.31549	66
541.43715	81
541.55881	72
541.68048	86
541.80215	72
541.92382	77
542.04549	58
542.16716	55
542.28883	72
542.4105	47
542.53218	66
542.65386	66
542.77554	72
542.89722	78
543.0189	69
543.14058	68
543.26227	75
543.38396	86
543.50564	91
543.62733	81
543.74902	115
543.87072	161
543.99241	192
544.11411	206
544.2358	198
544.3575	192
544.4792	223
544.60091	231
544.72261	225
544.84431	221
544.96602	229
545.08773	219
545.20944	240
545.33115	243
545.45286	238
545.57457	235
545.69629	232
545.81801	222
545.93972	225
546.06144	230
546.18316	194
546.30489	147
546.42661	112
546.54834	109
546.67006	123
546.79179	126
546.91352	80
547.03526	84
547.15699	62
547.27872	77
547.40046	67
547.5222	69
547.64394	73
547.76568	42
547.88742	69
548.00916	77
548.13091	65
548.25265	55
548.3744	92
548.49615	60
548.6179	54
548.73966	57
548.86141	48
548.98317	71
549.10492	60
549.22668	75
549.34844	62
549.4702	82
549.59197	69
549.71373	67
549.8355	55
549.95726	74
550.07903	56
550.2008	58
550.32257	50
550.44435	67
550.56612	36
550.6879	61
550.80968	48
550.93146	48
551.05324	76
551.17502	59
551.2968	93
551.41859	37
551.54037	54
551.66216	46
551.78395	66
551.90574	50
552.02754	66
552.14933	60
552.27112	58
552.39292	57
552.51472	54
552.63652	62
552.75832	59
552.88012	69
553.00193	57
553.12373	68
553.24554	60
553.36735	58
553.48916	56
553.61097	50
553.73278	70
553.8546	52
553.97641	60
554.09823	52
554.22005	46
554.34187	61
554.46369	72
554.58552	66
554.70734	68
554.82917	59
554.95099	43
555.07282	50
555.19465	51
555.31649	52
555.43832	58
555.56015	81
555.68199	68
555.80383	57
555.92567	59
556.04751	67
556.16935	61
556.29119	55
556.41304	55
556.53489	71
556.65673	65
556.77858	45
556.90043	47
557.02229	77
557.14414	52
557.26599	42
557.38785	56
557.50971	43
557.63157	53
557.75343	45
557.87529	45
557.99716	54
558.11902	71
558.24089	68
558.36276	62
558.48463	66
558.6065	77
558.72837	53
558.85024	48
558.97212	68
559.094	58
559.21587	44
559.33775	52
559.45963	55
559.58152	57
559.7034	56
559.82529	59
559.94717	63
560.06906	68
560.19095	67
560.31284	61
560.43473	68
560.55663	58
560.67852	62
560.80042	63
560.92232	60
561.04422	55
561.16612	55
561.28802	36
561.40993	69
561.53183	57
561.65374	28
561.77565	47
561.89756	57
562.01947	58
562.14138	54
562.26329	61
562.38521	58
562.50713	66
562.62904	69
562.75096	62
562.87289	63
562.99481	64
563.11673	46
563.23866	60
563.36058	47
563.48251	49
563.60444	40
563.72637	38
563.84831	58
563.97024	59
564.09217	65
564.21411	55
564.33605	78
564.45799	83
564.57993	33
564.70187	51
564.82382	50
564.94576	52
565.06771	53
565.18965	54
565.3116	48
565.43355	39
565.55551	64
565.67746	54
565.79942	56
565.92137	28
566.04333	53
566.16529	40
566.28725	66
566.40921	65
566.53117	60
566.65314	41
566.77511	56
566.89707	67
567.01904	63
567.14101	50
567.26298	64
567.38496	58
567.50693	50
567.62891	38
567.75089	72
567.87286	73
567.99484	49
568.11683	62
568.23881	55
568.36079	48
568.48278	56
568.60477	66
568.72675	54
568.84874	57
568.97074	69
569.09273	36
569.21472	44
569.33672	56
569.45871	33
569.58071	39
569.70271	70
569.82471	63
569.94672	65
570.06872	52
570.19073	59
570.31273	64
570.43474	21
570.55675	55
570.67876	35
570.80077	54
570.92279	30
571.0448	69
571.16682	54
571.28883	59
571.41085	52
571.53287	61
571.6549	54
571.77692	35
571.89894	44
572.02097	53
572.143	45
572.26502	71
572.38705	35
572.50909	45
572.63112	61
572.75315	78
572.87519	46
572.99723	71
573.11926	45
573.2413	82
573.36334	54
573.48539	46
573.60743	67
573.72948	44
573.85152	40
573.97357	41
574.09562	55
574.21767	34
574.33972	56
574.46177	57
574.58383	61
574.70589	51
574.82794	54
574.95	40
575.07206	38
575.19412	75
575.31619	39
575.43825	44
575.56032	56
575.68238	48
575.80445	47
575.92652	16
576.04859	52
576.17066	51
576.29274	48
576.41481	56
576.53689	46
576.65897	54
576.78105	41
576.90313	58
577.02521	47
577.14729	50
577.26938	35
577.39146	58
577.51355	53
577.63564	57
577.75773	44
577.87982	61
578.00191	52
578.12401	62
578.2461	35
578.3682	35
578.4903	39
578.6124	42
578.7345	33
578.8566	36
578.9787	41
579.10081	31
579.22291	19
579.34502	44
579.46713	45
579.58924	28
579.71135	54
579.83346	24
579.95558	46
580.07769	49
580.19981	52
580.32193	46
580.44405	39
580.56617	53
580.68829	28
580.81041	26
580.93254	67
581.05467	66
581.17679	57
581.29892	48
581.42105	58
581.54318	34
581.66532	54
581.78745	54
581.90959	58
582.03172	45
582.15386	48
582.276	22
582.39814	61
582.52028	69
582.64243	56
582.76457	48
582.88672	46
583.00886	51
583.13101	51
583.25316	70
583.37532	57
583.49747	74
583.61962	95
583.74178	56
583.86393	92
583.98609	104
584.10825	164
584.23041	191
584.35257	189
584.47474	162
584.5969	164
584.71907	157
584.84124	166
584.9634	212
585.08557	197
585.20775	185
585.32992	202
585.45209	179
585.57427	170
585.69644	184
585.81862	171
585.9408	194
586.06298	176
586.18516	171
586.30734	153
586.42953	121
586.55171	92
586.6739	57
586.79609	55
586.91828	45
587.04047	72
587.16266	48
587.28486	29
587.40705	60
587.52925	80
587.65144	61
587.77364	74
587.89584	65
588.01804	40
588.14025	57
588.26245	60
588.38466	51
588.50686	38
588.62907	43
588.75128	44
588.87349	59
588.9957	39
589.11791	35
589.24013	40
589.36234	46
589.48456	79
589.60678	68
589.729	39
589.85122	24
589.97344	41
590.09566	49
590.21789	54
590.34012	52
590.46234	51
590.58457	47
590.7068	35
590.82903	24
590.95126	43
591.0735	48
591.19573	37
591.31797	51
591.44021	43
591.56245	60
591.68469	36
591.80693	37
591.92917	31
592.05141	39
592.17366	47
592.29591	52
592.41815	40
592.5404	50
592.66265	22
592.7849	33
592.90716	37
593.02941	55
593.15167	32
593.27392	55
593.39618	27
593.51844	66
593.6407	52
593.76296	56
593.88523	41
594.00749	5
594.12976	38
594.25202	54
594.37429	51
594.49656	53
594.61883	53
594.7411	47
594.86338	42
594.98565	37
595.10793	45
595.2302	20
595.35248	55
595.47476	52
595.59704	37
595.71933	54
595.84161	86
595.96389	57
596.08618	48
596.20847	32
596.33075	41
596.45304	36
596.57534	41
596.69763	49
596.81992	39
596.94222	62
597.06451	30
597.18681	37
597.30911	31
597.43141	28
597.55371	32
597.67601	25
597.79831	61
597.92062	30
598.04293	42
598.16523	39
598.28754	29
598.40985	42
598.53216	29
598.65447	18
598.77679	59
598.8991	34
599.02142	50
599.14374	24
599.26606	57
599.38838	43
599.5107	21
599.63302	34
599.75534	57
599.87767	32
599.99999	33
600.12232	37
600.24465	31
600.36698	38
600.48931	46
600.61164	44
600.73398	15
600.85631	34
600.97865	32
601.10098	44
601.22332	22
601.34566	28
601.468	19
601.59035	66
601.71269	50
601.83503	49
601.95738	47
602.07973	49
602.20208	32
602.32442	49
602.44678	54
602.56913	50
602.69148	43
602.81384	34
602.93619	47
603.05855	4
603.18091	53
603.30327	31
603.42563	48
603.54799	33
603.67035	43
603.79272	49
603.91508	33
604.03745	33
604.15982	69
604.28219	24
604.40456	35
604.52693	31
604.6493	51
604.77168	58
604.89405	35
605.01643	55
605.13881	27
605.26119	7
605.38357	40
605.50595	44
605.62833	15
605.75071	42
605.8731	41
605.99549	39
606.11787	8
606.24026	25
606.36265	31
606.48504	45
606.60744	37
606.72983	33
606.85222	44
606.97462	43
607.09702	48
607.21942	47
607.34182	38
607.46422	41
607.58662	79
607.70902	35
607.83143	49
607.95383	25
608.07624	35
608.19865	17
608.32106	60
608.44347	30
608.56588	57
608.68829	32
608.81071	56
608.93312	57
609.05554	46
609.17796	28
609.30038	23
609.4228	26
609.54522	23
609.66764	10
609.79007	57
609.91249	35
610.03492	52
610.15734	43
610.27977	18
610.4022	31
610.52463	35
610.64707	44
610.7695	26
610.89193	20
611.01437	59
611.13681	60
611.25925	14
611.38169	49
611.50413	41
611.62657	32
611.74901	50
611.87145	39
611.9939	50
612.11635	25
612.23879	26
612.36124	46
612.48369	50
612.60615	36
612.7286	54
612.85105	26
612.97351	35
613.09596	21
613.21842	48
613.34088	28
613.46334	39
613.5858	51
613.70826	34
613.83072	45
613.95319	52
614.07565	23
614.19812	39
614.32059	30
614.44306	15
614.56553	19
614.688	9
614.81047	22
614.93295	34
615.05542	43
615.1779	20
615.30037	28
615.42285	26
615.54533	34
615.66781	32
615.79029	55
615.91278	41
616.03526	57
616.15775	45
616.28023	54
616.40272	8
616.52521	25
616.6477	40
616.77019	46
616.89268	38
617.01518	25
617.13767	36
617.26017	27
617.38267	30
617.50517	34
617.62766	34
617.75017	54
617.87267	31
617.99517	36
618.11767	45
618.24018	44
618.36269	42
618.48519	20
618.6077	25
618.73021	27
618.85272	44
618.97524	19
619.09775	32
619.22026	48
619.34278	20
619.4653	24
619.58781	13
619.71033	12
619.83285	19
619.95538	40
620.0779	27
620.20042	21
620.32295	37
620.44547	39
620.568	52
620.69053	40
620.81306	33
620.93559	11
621.05812	52
621.18065	35
621.30319	40
621.42572	8
621.54826	16
621.6708	30
621.79334	42
621.91588	24
622.03842	35
622.16096	55
622.2835	40
622.40605	18
622.52859	25
622.65114	21
622.77369	35
622.89624	37
623.01879	35
623.14134	20
623.26389	39
623.38644	31
623.509	41
623.63155	36
623.75411	21
623.87667	50
623.99923	58
624.12179	41
624.24435	33
624.36691	66
624.48948	39
624.61204	34
624.73461	48
624.85717	30
624.97974	38
625.10231	40
625.22488	60
625.34745	52
625.47003	41
625.5926	28
625.71518	48
625.83775	34
625.96033	30
626.08291	45
626.20549	40
626.32807	12
626.45065	23
626.57323	32
626.69582	32
626.8184	26
626.94099	24
627.06357	40
627.18616	24
627.30875	28
627.43134	17
627.55394	22
627.67653	28
627.79912	41
627.92172	38
628.04431	41
628.16691	14
628.28951	24
628.41211	31
628.53471	42
628.65731	37
628.77991	53
628.90252	38
629.02512	39
629.14773	27
629.27034	38
629.39295	34
629.51556	31
629.63817	26
629.76078	44
629.88339	36
630.00601	60
630.12862	36
630.25124	27
630.37385	22
630.49647	21
630.61909	21
630.74171	27
630.86433	32
630.98696	22
631.10958	44
631.23221	19
631.35483	46
631.47746	31
631.60009	16
631.72272	17
631.84535	39
631.96798	25
632.09061	25
632.21325	29
632.33588	35
632.45852	43
632.58115	48
632.70379	14
632.82643	43
632.94907	42
633.07171	54
633.19436	44
633.317	55
633.43965	41
633.56229	22
633.68494	34
633.80759	44
633.93024	42
634.05289	44
634.17554	31
634.29819	34
634.42084	23
634.5435	22
634.66615	29
634.78881	33
634.91147	64
635.03413	46
635.15679	28
635.27945	22
635.40211	14
635.52477	39
635.64744	34
635.7701	16
635.89277	36
636.01544	19
636.13811	22
636.26077	30
636.38345	31
636.50612	40
636.62879	49
636.75146	33
636.87414	38
636.99682	38
637.11949	45
637.24217	34
637.36485	34
637.48753	25
637.61021	32
637.73289	41
637.85558	31
637.97826	32
638.10095	43
638.22364	35
638.34632	25
638.46901	38
638.5917	35
638.71439	47
638.83709	38
638.95978	32
639.08247	34
639.20517	37
639.32787	33
639.45056	22
639.57326	44
639.69596	40
639.81866	19
639.94136	23
640.06407	39
640.18677	41
640.30947	38
640.43218	35
640.55489	43
640.6776	35
640.8003	40
640.92301	37
641.04573	41
641.16844	45
641.29115	36
641.41387	56
641.53658	21
641.6593	32
641.78202	28
641.90473	37
642.02745	22
642.15017	30
642.2729	50
642.39562	40
642.51834	42
642.64107	48
642.76379	41
642.88652	36
643.00925	46
643.13198	47
643.25471	60
643.37744	31
643.50017	27
643.6229	30
643.74564	24
643.86837	49
643.99111	42
644.11385	45
644.23659	34
644.35933	45
644.48207	44
644.60481	35
644.72755	39
644.85029	30
644.97304	48
645.09578	47
645.21853	30
645.34128	47
645.46403	41
645.58678	28
645.70953	24
645.83228	27
645.95503	25
646.07779	35
646.20054	51
646.3233	28
646.44605	62
646.56881	31
646.69157	48
646.81433	52
646.93709	45
647.05986	35
647.18262	20
647.30538	25
647.42815	50
647.55091	13
647.67368	33
647.79645	32
647.91922	29
648.04199	32
648.16476	23
648.28753	47
648.41031	43
648.53308	44
648.65586	40
648.77863	38
648.90141	26
649.02419	38
649.14697	21
649.26975	28
649.39253	40
649.51531	26
649.6381	19
649.76088	46
649.88367	39
650.00645	35
650.12924	45
650.25203	45
650.37482	32
650.49761	44
650.6204	31
650.74319	44
650.86599	43
650.98878	33
651.11158	43
651.23438	49
651.35717	49
651.47997	47
651.60277	38
651.72557	76
651.84837	77
651.97118	103
652.09398	129
652.21679	143
652.33959	163
652.4624	175
652.58521	179
652.70801	187
652.83082	179
652.95363	177
653.07645	187
653.19926	169
653.32207	180
653.44489	163
653.5677	156
653.69052	183
653.81334	165
653.93616	177
654.05898	175
654.1818	151
654.30462	139
654.42744	119
654.55027	68
654.67309	68
654.79592	37
654.91874	37
655.04157	39
655.1644	55
655.28723	40
655.41006	24
655.53289	34
655.65572	18
655.77856	24
655.90139	48
656.02423	28
656.14706	46
656.2699	36
656.39274	33
656.51558	20
656.63842	36
656.76126	35
656.8841	51
657.00695	26
657.12979	26
657.25264	33
657.37548	36
657.49833	18
657.62118	29
657.74403	37
657.86688	28
657.98973	43
658.11258	35
658.23543	7
658.35829	13
658.48114	45
658.604	30
658.72686	28
658.84971	25
658.97257	38
659.09543	23
659.21829	41
659.34116	12
659.46402	46
659.58688	21
659.70975	26
659.83261	10
659.95548	46
660.07835	28
660.20122	31
660.32409	26
660.44696	44
660.56983	51
660.6927	39
660.81557	32
660.93845	37
661.06132	43
661.1842	46
661.30708	33
661.42996	23
661.55284	29
661.67572	32
661.7986	26
661.92148	29
662.04436	39
662.16725	41
662.29013	38
662.41302	31
662.5359	27
662.65879	26
662.78168	10
