736.93946	18
737.06254	17
737.18562	13
737.3087	16
737.43179	10
737.55488	20
737.67796	7
737.80105	17
737.92414	14
738.04723	15
738.17033	15
738.29342	23
738.41652	20
738.53961	20
738.66271	7
738.78581	18
738.90891	15
739.03202	10
739.15512	22
739.27823	16
739.40133	16
739.52444	15
739.64755	10
739.77066	11
739.89377	23
740.01689	14
740.14	18
740.26312	18
740.38624	13
740.50936	15
740.63248	12
740.7556	23
740.87872	13
741.00185	14
741.12497	10
741.2481	15
741.37123	13
741.49436	21
741.61749	8
741.74062	13
741.86375	13
741.98689	22
742.11003	11
742.23316	15
742.3563	15
742.47944	26
742.60259	9
742.72573	11
742.84887	17
742.97202	17
743.09517	18
743.21832	12
743.34147	16
743.46462	12
743.58777	14
743.71092	12
743.83408	14
743.95724	19
744.0804	12
744.20355	19
744.32672	18
744.44988	21
744.57304	16
744.69621	7
744.81937	18
744.94254	13
745.06571	14
745.18888	14
745.31205	17
745.43522	19
745.5584	19
745.68157	16
745.80475	14
745.92793	19
746.05111	17
746.17429	33
746.29747	28
746.42065	37
746.54384	42
746.66703	34
746.79021	45
746.9134	45
747.03659	30
747.15978	44
747.28298	48
747.40617	59
747.52937	61
747.65256	62
747.77576	23
747.89896	64
748.02216	64
748.14536	50
748.26857	60
748.39177	63
748.51498	54
748.63818	51
748.76139	45
748.8846	34
749.00782	37
749.13103	37
749.25424	38
749.37746	28
749.50067	38
749.62389	25
749.74711	26
749.87033	16
749.99355	19
750.11678	17
750.24	13
750.36323	10
750.48645	14
750.60968	20
750.73291	14
750.85614	8
750.97938	16
751.10261	18
751.22584	12
751.34908	6
751.47232	9
751.59556	11
751.7188	18
751.84204	19
751.96528	20
752.08853	12
752.21177	15
752.33502	13
752.45827	13
752.58152	15
752.70477	13
752.82802	15
752.95127	16
753.07453	11
753.19778	16
753.32104	11
753.4443	16
753.56756	23
753.69082	8
753.81408	10
753.93734	9
754.06061	6
754.18388	8
754.30714	11
754.43041	15
754.55368	16
754.67695	11
754.80023	16
754.9235	15
755.04677	17
755.17005	12
755.29333	14
755.41661	16
755.53989	12
755.66317	11
755.78645	10
755.90974	17
756.03302	14
756.15631	15
756.2796	20
756.40289	13
756.52618	16
756.64947	17
756.77276	9
756.89606	11
757.01935	12
757.14265	13
757.26595	8
757.38925	13
757.51255	12
757.63585	12
757.75916	6
757.88246	11
758.00577	10
758.12907	13
758.25238	10
758.37569	13
758.499	9
758.62232	10
758.74563	16
758.86894	15
758.99226	9
759.11558	12
759.2389	18
759.36222	26
759.48554	23
759.60886	29
759.73219	18
759.85551	31
759.97884	33
760.10216	35
760.22549	28
760.34882	27
760.47215	28
760.59549	31
760.71882	32
760.84216	35
760.96549	29
761.08883	23
761.21217	33
761.33551	26
761.45885	26
761.5822	26
761.70554	25
761.82888	22
761.95223	12
762.07558	13
762.19893	11
762.32228	8
762.44563	9
762.56898	14
762.69234	10
762.81569	15
762.93905	12
763.06241	12
763.18577	10
763.30913	11
763.43249	9
763.55585	13
763.67922	18
763.80258	8
763.92595	13
764.04932	15
764.17268	18
764.29605	19
764.41943	16
764.5428	19
764.66617	19
764.78955	22
764.91293	26
765.0363	23
765.15968	22
765.28306	12
765.40644	35
765.52983	30
765.65321	31
765.7766	26
765.89998	26
766.02337	23
766.14676	29
766.27015	29
766.39354	28
766.51693	23
766.64033	28
766.76372	19
766.88712	25
767.01052	23
767.13392	17
767.25732	8
767.38072	12
767.50412	15
767.62752	11
767.75093	16
767.87434	10
767.99774	14
768.12115	15
768.24456	10
768.36797	14
768.49139	20
768.6148	15
768.73821	20
768.86163	15
768.98505	13
769.10847	12
769.23189	16
769.35531	20
769.47873	13
769.60215	17
769.72558	20
769.849	12
769.97243	12
770.09586	20
770.21929	13
770.34272	12
770.46615	16
770.58959	12
770.71302	16
770.83646	13
770.95989	6
771.08333	13
771.20677	10
771.33021	12
771.45365	11
771.57709	9
771.70054	7
771.82398	17
771.94743	6
772.07088	6
772.19433	7
772.31778	10
772.44123	4
772.56468	8
772.68814	3
772.81159	5
772.93505	11
773.0585	10
773.18196	1
773.30542	4
773.42888	12
773.55235	3
773.67581	13
773.79928	7
773.92274	10
774.04621	12
774.16968	5
774.29315	12
774.41662	8
774.54009	8
774.66356	9
774.78704	15
774.91051	6
775.03399	14
775.15747	13
775.28094	3
775.40443	7
775.52791	10
775.65139	12
775.77487	4
775.89836	8
776.02184	9
776.14533	12
776.26882	5
776.39231	9
776.5158	9
776.63929	9
776.76279	7
776.88628	5
777.00978	10
777.13327	8
777.25677	1
777.38027	9
777.50377	6
777.62727	5
777.75078	8
777.87428	8
777.99779	11
778.12129	10
778.2448	9
778.36831	6
778.49182	10
778.61533	7
778.73884	13
778.86236	6
778.98587	14
779.10939	10
779.2329	7
779.35642	7
779.47994	7
779.60346	11
779.72698	12
779.85051	9
779.97403	6
780.09756	7
780.22108	6
780.34461	12
780.46814	9
780.59167	3
780.7152	14
780.83873	11
780.96227	9
781.0858	10
781.20934	3
781.33287	4
781.45641	9
781.57995	4
781.70349	4
781.82703	10
781.95058	7
782.07412	7
782.19766	6
782.32121	10
782.44476	4
782.56831	13
782.69186	11
782.81541	11
782.93896	6
783.06251	8
783.18607	7
783.30962	9
783.43318	4
783.55674	5
783.6803	11
783.80386	6
783.92742	9
784.05098	10
784.17454	9
784.29811	11
784.42168	7
784.54524	11
784.66881	7
784.79238	8
784.91595	5
785.03952	11
785.1631	10
785.28667	14
785.41024	10
785.53382	7
785.6574	4
785.78098	8
785.90456	14
786.02814	9
786.15172	5
786.2753	10
786.39889	6
786.52247	12
786.64606	13
786.76965	9
786.89324	4
787.01683	13
787.14042	15
787.26401	10
787.3876	11
787.5112	11
787.63479	10
787.75839	10
787.88199	7
788.00559	10
788.12919	11
788.25279	8
788.37639	9
788.5	2
788.6236	6
788.74721	5
788.87081	4
788.99442	5
789.11803	5
789.24164	2
789.36525	4
789.48887	4
789.61248	9
789.73609	9
789.85971	7
789.98333	11
790.10695	8
790.23057	4
790.35419	12
790.47781	8
790.60143	13
790.72506	10
790.84868	16
790.97231	18
791.09593	20
791.21956	24
791.34319	19
791.46682	19
791.59045	21
791.71409	19
791.83772	24
791.96136	27
792.08499	21
792.20863	23
792.33227	23
792.45591	22
792.57955	22
792.70319	20
792.82683	15
792.95048	16
793.07412	14
793.19777	10
793.32142	14
793.44507	10
793.56872	16
793.69237	7
793.81602	9
793.93967	9
794.06333	12
794.18698	7
794.31064	12
794.4343	7
794.55795	7
794.68161	4
794.80527	5
794.92894	7
795.0526	7
795.17626	11
795.29993	11
795.42359	8
795.54726	3
795.67093	8
795.7946	8
795.91827	19
796.04194	25
796.16562	29
796.28929	34
796.41296	51
796.53664	79
796.66032	108
796.784	112
796.90768	122
797.03136	110
797.15504	121
797.27872	129
797.4024	129
797.52609	138
797.64978	132
797.77346	138
797.89715	138
798.02084	127
798.14453	136
798.26822	142
798.39191	138
798.51561	135
798.6393	131
798.763	114
798.8867	101
799.01039	60
799.13409	35
799.25779	33
799.38149	24
799.5052	21
799.6289	15
799.7526	15
799.87631	12
800.00002	12
800.12372	11
800.24743	8
800.37114	4
800.49485	8
800.61857	6
800.74228	7
800.86599	7
800.98971	4
801.11343	4
801.23714	7
801.36086	9
801.48458	7
801.6083	8
801.73202	11
801.85575	10
801.97947	5
802.10319	11
802.22692	8
802.35065	8
802.47438	5
802.59811	8
802.72184	7
802.84557	10
802.9693	7
803.09303	7
803.21677	7
803.3405	7
803.46424	5
803.58798	6
803.71172	5
803.83546	10
803.9592	6
804.08294	7
804.20668	6
804.33043	5
804.45417	1
804.57792	4
804.70166	3
804.82541	15
804.94916	7
805.07291	3
805.19666	11
805.32042	6
805.44417	3
805.56793	5
805.69168	3
805.81544	5
805.9392	10
806.06295	10
806.18671	14
806.31048	12
806.43424	12
806.558	12
806.68176	18
806.80553	14
806.9293	14
807.05306	17
807.17683	18
807.3006	18
807.42437	16
807.54814	22
807.67192	27
807.79569	27
807.91946	28
808.04324	29
808.16702	31
808.29079	31
808.41457	33
808.53835	37
808.66213	32
808.78592	33
808.9097	21
809.03348	17
809.15727	23
809.28105	18
809.40484	23
809.52863	22
809.65242	16
809.77621	19
809.9	22
810.02379	19
810.14758	11
810.27138	2
810.39517	4
810.51897	0
810.64277	6
810.76657	11
810.89037	5
811.01417	5
811.13797	2
811.26177	6
811.38557	0
811.50938	5
811.63318	4
811.75699	7
811.8808	1
812.00461	8
812.12842	4
812.25223	7
812.37604	4
812.49985	5
812.62367	5
812.74748	5
812.8713	-1
812.99511	9
813.11893	6
813.24275	8
813.36657	7
813.49039	4
813.61421	11
813.73804	5
813.86186	6
813.98569	3
814.10951	5
814.23334	5
814.35717	4
814.481	5
814.60483	7
814.72866	9
814.85249	8
814.97632	3
815.10016	2
815.22399	3
815.34783	6
815.47166	8
815.5955	4
815.71934	8
815.84318	4
815.96702	13
816.09087	8
816.21471	3
816.33855	10
816.4624	7
816.58624	3
816.71009	6
816.83394	3
816.95779	9
817.08164	4
817.20549	5
817.32934	3
817.4532	3
817.57705	5
817.70091	11
817.82476	7
817.94862	5
818.07248	7
818.19634	6
818.3202	6
818.44406	7
818.56792	2
818.69178	-2
818.81565	5
818.93951	9
819.06338	3
819.18725	10
819.31111	4
819.43498	11
819.55885	6
819.68272	4
819.8066	9
819.93047	8
820.05434	0
820.17822	1
820.30209	5
820.42597	7
820.54985	5
820.67373	6
820.79761	10
820.92149	1
821.04537	8
821.16925	9
821.29314	8
821.41702	3
821.54091	5
821.6648	8
821.78868	10
821.91257	15
822.03646	8
822.16035	14
822.28425	15
822.40814	14
822.53203	15
822.65593	15
822.77982	23
822.90372	19
823.02762	25
823.15151	23
823.27541	20
823.39931	22
823.52322	26
823.64712	25
823.77102	35
823.89493	31
824.01883	34
824.14274	30
824.26665	27
824.39055	24
824.51446	21
824.63837	23
824.76228	23
824.8862	28
825.01011	22
825.13402	28
825.25794	24
825.38185	18
825.50577	21
825.62969	18
825.75361	16
825.87753	17
826.00145	16
826.12537	12
826.24929	10
826.37322	4
826.49714	6
826.62107	5
826.74499	9
826.86892	6
826.99285	3
827.11678	3
827.24071	7
827.36464	2
827.48857	5
827.61251	4
827.73644	7
827.86037	7
827.98431	5
828.10825	7
828.23219	9
828.35612	10
828.48006	10
828.60401	13
828.72795	8
828.85189	24
828.97583	31
829.09978	28
829.22372	30
829.34767	28
829.47162	34
829.59557	27
829.71951	31
829.84347	32
829.96742	34
830.09137	28
830.21532	32
830.33928	21
830.46323	28
830.58719	28
830.71114	26
830.8351	27
830.95906	25
831.08302	29
831.20698	19
831.33094	11
831.4549	8
831.57887	4
831.70283	2
831.8268	-1
831.95076	5
832.07473	3
832.1987	4
832.32267	6
832.44664	9
832.57061	6
832.69458	5
832.81855	2
832.94253	5
833.0665	5
833.19048	6
833.31445	6
833.43843	5
833.56241	3
833.68639	13
833.81037	3
833.93435	8
834.05833	14
834.18231	16
834.3063	22
834.43028	23
834.55427	23
834.67825	34
834.80224	39
834.92623	27
835.05022	36
835.17421	32
835.2982	34
835.42219	35
835.54618	30
835.67018	36
835.79417	34
835.91817	31
836.04216	35
836.16616	37
836.29016	52
836.41416	59
836.53816	56
836.66216	66
836.78616	78
836.91017	109
837.03417	118
837.15817	119
837.28218	125
837.40619	129
837.53019	120
837.6542	140
837.77821	137
837.90222	137
838.02623	136
838.15024	134
838.27426	132
838.39827	141
838.52229	136
838.6463	140
838.77032	144
838.89434	128
839.01835	123
839.14237	120
839.26639	84
839.39041	57
839.51444	37
839.63846	33
839.76248	22
839.88651	28
840.01053	19
840.13456	17
840.25859	15
840.38261	19
840.50664	16
840.63067	22
840.7547	19
840.87874	20
841.00277	15
841.1268	15
841.25084	16
841.37487	10
841.49891	8
841.62294	10
841.74698	6
841.87102	6
841.99506	10
842.1191	6
842.24314	2
842.36719	8
842.49123	5
842.61527	7
842.73932	7
842.86336	6
842.98741	6
843.11146	7
843.23551	4
843.35956	6
843.48361	3
843.60766	7
843.73171	3
843.85576	5
843.97982	7
844.10387	1
844.22793	5
844.35198	6
844.47604	6
844.6001	5
844.72416	5
844.84822	6
844.97228	3
845.09634	4
845.2204	7
845.34446	11
845.46853	5
845.59259	7
845.71666	9
845.84073	12
845.96479	15
846.08886	17
846.21293	24
846.337	14
846.46107	16
846.58515	20
846.70922	16
846.83329	15
846.95737	16
847.08144	13
847.20552	19
847.3296	18
847.45367	14
847.57775	16
847.70183	21
847.82591	13
847.95	16
848.07408	11
848.19816	11
848.32224	11
848.44633	5
848.57042	4
848.6945	6
848.81859	13
848.94268	13
849.06677	7
849.19086	15
849.31495	15
849.43904	15
849.56313	10
849.68723	9
849.81132	10
849.93542	10
850.05951	11
850.18361	12
850.30771	13
850.4318	11
850.5559	7
850.68	15
850.8041	9
850.92821	9
851.05231	15
851.17641	11
851.30052	8
851.42462	8
851.54873	7
851.67284	6
851.79694	3
851.92105	8
852.04516	8
852.16927	4
852.29338	3
852.41749	4
852.54161	2
852.66572	3
852.78984	3
852.91395	2
853.03807	3
853.16218	8
853.2863	6
853.41042	7
853.53454	5
853.65866	6
853.78278	5
853.9069	4
854.03103	10
854.15515	0
854.27927	1
854.4034	8
854.52753	4
854.65165	1
854.77578	3
854.89991	5
855.02404	3
855.14817	9
855.2723	-1
855.39643	5
855.52056	5
855.6447	7
855.76883	6
855.89297	3
856.0171	6
856.14124	0
856.26538	5
856.38952	2
856.51366	7
856.6378	3
856.76194	8
856.88608	5
857.01022	6
857.13436	7
857.25851	6
857.38265	5
857.5068	0
857.63094	-1
857.75509	5
857.87924	4
858.00339	3
858.12754	4
858.25169	7
858.37584	3
858.49999	8
858.62415	5
858.7483	3
858.87246	5
858.99661	3
859.12077	4
859.24492	5
859.36908	4
859.49324	5
859.6174	3
859.74156	3
859.86572	1
859.98988	6
860.11405	5
860.23821	3
860.36237	4
860.48654	1
860.6107	8
860.73487	0
860.85904	4
860.98321	6
861.10738	0
861.23155	9
861.35572	2
861.47989	1
861.60406	6
861.72823	6
861.85241	5
861.97658	5
862.10076	4
862.22493	6
862.34911	8
862.47329	2
862.59747	2
862.72165	5
862.84583	3
862.97001	-1
863.09419	6
863.21837	2
863.34256	3
863.46674	3
