836.60131	49
836.72507	47
836.84884	42
836.9726	42
837.09637	48
837.22014	46
837.34391	41
837.46768	40
837.59145	37
837.71522	37
837.839	34
837.96278	34
838.08655	22
838.21033	18
838.33411	18
838.45789	19
838.58168	20
838.70546	20
838.82925	18
838.95303	15
839.07682	17
839.20061	18
839.3244	18
839.44819	18
839.57198	20
839.69578	15
839.81957	11
839.94337	17
840.06717	14
840.19097	16
840.31477	15
840.43857	13
840.56237	12
840.68618	17
840.80999	9
840.93379	13
841.0576	13
841.18141	12
841.30522	12
841.42903	9
841.55285	14
841.67666	13
841.80048	13
841.92429	15
842.04811	14
842.17193	16
842.29575	9
842.41958	16
842.5434	13
842.66722	14
842.79105	20
842.91488	11
843.03871	7
843.16254	9
843.28637	14
843.4102	12
843.53403	10
843.65787	11
843.7817	11
843.90554	14
844.02938	14
844.15322	7
844.27706	15
844.4009	15
844.52475	18
844.64859	19
844.77244	17
844.89629	13
845.02013	15
845.14398	15
845.26784	18
845.39169	18
845.51554	20
845.6394	10
845.76325	13
845.88711	17
846.01097	14
846.13483	14
846.25869	15
846.38255	14
846.50642	15
846.63028	15
846.75415	19
846.87802	13
847.00188	17
847.12575	11
847.24963	14
847.3735	12
847.49737	8
847.62125	13
847.74512	11
847.869	13
847.99288	13
848.11676	12
848.24064	11
848.36452	14
848.48841	9
848.61229	12
848.73618	12
848.86006	12
848.98395	7
849.10784	15
849.23173	14
849.35562	16
849.47952	13
849.60341	15
849.72731	11
849.85121	8
849.9751	7
850.099	13
850.2229	13
850.34681	9
850.47071	15
850.59461	14
850.71852	11
850.84243	14
850.96634	11
851.09025	10
851.21416	15
851.33807	9
851.46198	14
851.5859	11
851.70981	12
851.83373	15
851.95765	14
852.08156	12
852.20549	10
852.32941	11
852.45333	14
852.57725	12
852.70118	12
852.82511	14
852.94903	13
853.07296	12
853.19689	15
853.32082	14
853.44476	14
853.56869	9
853.69263	15
853.81656	13
853.9405	9
854.06444	10
854.18838	18
854.31232	10
854.43626	11
854.5602	9
854.68415	10
854.8081	9
854.93204	9
855.05599	11
855.17994	14
855.30389	13
855.42784	12
855.5518	13
855.67575	9
855.79971	12
855.92366	15
856.04762	11
856.17158	11
856.29554	13
856.4195	10
856.54346	15
856.66743	11
856.79139	9
856.91536	9
857.03933	13
857.1633	11
857.28727	12
857.41124	15
857.53521	8
857.65918	11
857.78316	8
857.90713	9
858.03111	11
858.15509	10
858.27907	8
858.40305	13
858.52703	6
858.65102	12
858.775	7
858.89898	14
859.02297	9
859.14696	10
859.27095	10
859.39494	8
859.51893	9
859.64292	11
859.76692	6
859.89091	12
860.01491	9
860.1389	8
860.2629	12
860.3869	9
860.5109	4
860.63491	9
860.75891	16
860.88291	7
861.00692	15
861.13093	14
861.25493	9
861.37894	6
861.50295	10
861.62697	10
861.75098	7
861.87499	9
861.99901	12
862.12302	9
862.24704	11
862.37106	11
862.49508	8
862.6191	12
862.74312	8
862.86714	7
862.99117	10
863.11519	11
863.23922	12
863.36325	11
863.48728	10
863.61131	7
863.73534	7
863.85937	13
863.98341	5
864.10744	15
864.23148	9
864.35551	8
864.47955	4
864.60359	11
864.72763	6
864.85167	12
864.97572	12
865.09976	3
865.22381	6
865.34785	12
865.4719	8
865.59595	8
865.72	12
865.84405	11
865.9681	9
866.09216	11
866.21621	11
866.34027	16
866.46432	11
866.58838	10
866.71244	13
866.8365	7
866.96056	6
867.08463	7
867.20869	11
867.33276	8
867.45682	10
867.58089	13
867.70496	9
867.82903	9
867.9531	8
868.07717	8
868.20124	8
868.32532	14
868.44939	7
868.57347	9
868.69755	5
868.82162	8
868.9457	8
869.06979	13
869.19387	15
869.31795	8
869.44203	14
869.56612	7
869.69021	12
869.81429	3
869.93838	9
870.06247	16
870.18657	8
870.31066	8
870.43475	11
870.55885	12
870.68294	11
870.80704	13
870.93114	10
871.05524	9
871.17934	10
871.30344	13
871.42754	11
871.55164	9
871.67575	7
871.79985	12
871.92396	9
872.04807	11
872.17218	10
872.29629	13
872.4204	12
872.54451	12
872.66863	8
872.79274	11
872.91686	11
873.04098	14
873.16509	9
873.28921	8
873.41333	11
873.53746	6
873.66158	12
873.7857	6
873.90983	9
874.03395	11
874.15808	11
874.28221	10
874.40634	10
874.53047	10
874.6546	14
874.77874	4
874.90287	12
875.027	12
875.15114	11
875.27528	10
875.39942	11
875.52356	12
875.6477	9
875.77184	9
875.89598	8
876.02013	5
876.14427	10
876.26842	10
876.39256	8
876.51671	7
876.64086	7
876.76501	9
876.88916	9
877.01332	9
877.13747	11
877.26163	12
877.38578	4
877.50994	8
877.6341	7
877.75826	7
877.88242	8
878.00658	8
878.13074	8
878.25491	12
878.37907	9
878.50324	9
878.62741	9
878.75157	7
878.87574	14
878.99991	9
879.12408	6
879.24826	4
879.37243	10
879.49661	11
879.62078	10
879.74496	10
879.86914	11
879.99332	9
880.1175	5
880.24168	6
880.36586	6
880.49004	11
880.61423	9
880.73841	9
880.8626	9
880.98679	9
881.11098	10
881.23517	8
881.35936	10
881.48355	11
881.60774	6
881.73194	12
881.85613	11
881.98033	10
882.10453	6
882.22873	9
882.35293	8
882.47713	12
882.60133	6
882.72553	12
882.84974	4
882.97394	8
883.09815	10
883.22236	13
883.34657	8
883.47077	8
883.59499	12
883.7192	8
883.84341	7
883.96762	7
884.09184	7
884.21605	16
884.34027	2
884.46449	11
884.58871	10
884.71293	5
884.83715	10
884.96137	3
885.0856	8
885.20982	10
885.33405	8
885.45827	10
885.5825	10
885.70673	3
885.83096	10
885.95519	7
886.07942	8
886.20365	7
886.32789	4
886.45212	8
886.57636	8
886.7006	12
886.82484	6
886.94907	5
887.07332	6
887.19756	7
887.3218	8
887.44604	8
887.57029	8
887.69453	7
887.81878	10
887.94303	4
888.06728	8
888.19153	10
888.31578	9
888.44003	9
888.56428	8
888.68854	8
888.81279	8
888.93705	6
889.06131	6
889.18556	8
889.30982	8
889.43408	6
889.55834	6
889.68261	5
889.80687	3
889.93114	9
890.0554	7
890.17967	10
890.30394	12
890.4282	10
890.55247	10
890.67675	8
890.80102	9
890.92529	6
891.04956	6
891.17384	9
891.29811	9
891.42239	9
891.54667	5
891.67095	7
891.79523	3
891.91951	9
892.04379	6
892.16808	9
892.29236	7
892.41665	10
892.54093	10
892.66522	4
892.78951	10
892.9138	8
893.03809	9
893.16238	9
893.28667	4
893.41097	10
893.53526	5
893.65956	8
893.78385	2
893.90815	4
894.03245	7
894.15675	4
894.28105	4
894.40535	11
894.52965	12
894.65396	6
894.77826	6
894.90257	9
895.02688	4
895.15118	5
895.27549	6
895.3998	9
895.52411	8
895.64843	9
895.77274	9
895.89705	5
896.02137	7
896.14568	10
896.27	9
896.39432	13
896.51864	12
896.64296	9
896.76728	9
896.8916	4
897.01593	4
897.14025	14
897.26457	6
897.3889	13
897.51323	9
897.63756	10
897.76189	13
897.88622	6
898.01055	10
898.13488	14
898.25921	12
898.38355	8
898.50788	10
898.63222	7
898.75656	12
898.88089	10
899.00523	-1
899.12957	4
899.25391	7
899.37826	4
899.5026	3
899.62694	10
899.75129	7
899.87564	7
899.99998	6
900.12433	5
900.24868	8
900.37303	11
900.49738	9
900.62173	4
900.74609	8
900.87044	4
900.9948	12
901.11915	6
901.24351	6
901.36787	9
901.49223	5
901.61659	9
901.74095	11
901.86531	11
901.98967	10
902.11404	7
902.2384	11
902.36277	7
902.48714	13
902.61151	12
902.73587	10
902.86024	10
902.98462	11
903.10899	14
903.23336	9
903.35773	11
903.48211	6
903.60649	3
903.73086	9
903.85524	7
903.97962	11
904.104	9
904.22838	4
904.35276	3
904.47714	4
904.60153	5
904.72591	10
904.8503	2
904.97469	11
905.09907	10
905.22346	8
905.34785	8
905.47224	0
905.59663	5
905.72103	7
905.84542	6
905.96981	5
906.09421	7
906.21861	10
906.343	3
906.4674	7
906.5918	7
906.7162	3
906.8406	6
906.96501	6
907.08941	1
907.21381	8
907.33822	5
907.46262	12
907.58703	5
907.71144	4
907.83585	8
907.96026	2
908.08467	13
908.20908	1
908.33349	4
908.45791	4
908.58232	10
908.70674	11
908.83115	6
908.95557	5
909.07999	9
909.20441	9
909.32883	4
909.45325	4
909.57767	7
909.7021	13
909.82652	9
909.95095	10
910.07537	8
910.1998	5
910.32423	12
910.44866	8
910.57309	1
910.69752	6
910.82195	7
910.94638	5
911.07082	3
911.19525	11
911.31969	9
911.44412	5
911.56856	8
911.693	3
911.81744	8
911.94188	8
912.06632	7
912.19076	7
912.31521	5
912.43965	4
912.56409	3
912.68854	7
912.81299	4
912.93744	3
913.06188	7
913.18633	5
913.31078	7
913.43524	6
913.55969	8
913.68414	8
913.8086	2
913.93305	12
914.05751	6
914.18197	3
914.30642	5
914.43088	4
914.55534	9
914.6798	2
914.80427	4
914.92873	3
915.05319	5
915.17766	2
915.30212	9
915.42659	7
915.55106	8
915.67553	5
915.79999	5
915.92446	6
916.04894	6
916.17341	2
916.29788	5
916.42235	6
916.54683	5
916.67131	8
916.79578	7
916.92026	4
917.04474	1
917.16922	4
917.2937	3
917.41818	5
917.54266	7
917.66714	6
917.79163	6
917.91611	8
918.0406	8
918.16509	7
918.28957	7
918.41406	1
918.53855	3
918.66304	5
918.78753	3
918.91203	2
919.03652	6
919.16101	7
919.28551	6
919.41	6
919.5345	7
919.659	3
919.7835	5
919.908	5
920.0325	5
920.157	6
920.2815	6
920.406	5
920.53051	1
920.65501	2
920.77952	6
920.90402	9
921.02853	6
921.15304	8
921.27755	6
921.40206	7
921.52657	5
921.65108	7
921.7756	6
921.90011	4
922.02462	5
922.14914	4
922.27366	4
922.39817	4
922.52269	7
922.64721	2
922.77173	0
922.89625	12
923.02077	2
923.1453	2
923.26982	4
923.39435	3
923.51887	4
923.6434	7
923.76792	8
923.89245	8
924.01698	7
924.14151	3
924.26604	3
924.39057	3
924.51511	5
924.63964	5
924.76417	6
924.88871	0
925.01325	6
925.13778	2
925.26232	4
925.38686	3
925.5114	5
925.63594	6
925.76048	0
925.88502	8
926.00957	4
926.13411	1
926.25865	5
926.3832	2
926.50775	2
926.63229	1
926.75684	3
926.88139	5
927.00594	4
927.13049	4
927.25504	4
927.3796	6
927.50415	6
927.62871	3
927.75326	1
927.87782	4
928.00237	7
928.12693	6
928.25149	7
928.37605	3
928.50061	8
928.62517	9
928.74973	6
928.8743	8
928.99886	1
929.12343	5
929.24799	0
929.37256	8
929.49713	-2
929.62169	8
929.74626	7
929.87083	5
929.9954	3
930.11998	7
930.24455	-1
930.36912	2
930.4937	7
930.61827	9
930.74285	4
930.86742	5
930.992	6
931.11658	4
931.24116	5
931.36574	7
931.49032	5
931.6149	7
931.73949	2
931.86407	5
931.98865	11
932.11324	5
932.23783	2
932.36241	5
932.487	5
932.61159	10
932.73618	8
932.86077	8
932.98536	8
933.10995	4
933.23455	4
933.35914	1
933.48373	6
933.60833	6
933.73293	7
933.85752	6
933.98212	1
934.10672	9
934.23132	7
934.35592	3
934.48052	2
934.60512	6
934.72973	3
934.85433	2
934.97894	8
935.10354	7
935.22815	9
935.35276	6
935.47736	2
935.60197	7
935.72658	3
935.85119	1
935.9758	7
936.10042	0
936.22503	2
936.34964	8
936.47426	6
936.59887	2
936.72349	4
936.84811	6
936.97272	6
937.09734	4
937.22196	5
937.34658	7
937.47121	4
937.59583	7
937.72045	3
937.84507	5
937.9697	3
938.09432	5
938.21895	7
938.34358	4
938.46821	4
938.59283	7
938.71746	6
938.84209	6
938.96672	1
939.09136	2
939.21599	0
939.34062	4
939.46526	4
939.58989	2
939.71453	2
939.83917	6
939.9638	2
940.08844	2
940.21308	1
940.33772	0
940.46236	-2
940.587	4
940.71165	8
940.83629	4
940.96093	4
941.08558	2
941.21022	1
941.33487	4
941.45952	8
941.58417	7
941.70882	3
941.83347	5
941.95812	7
942.08277	4
942.20742	6
942.33207	0
942.45673	10
942.58138	9
942.70604	4
942.83069	7
942.95535	2
943.08001	0
943.20467	7
943.32932	6
943.45398	6
943.57865	7
943.70331	6
943.82797	9
943.95263	7
944.0773	5
944.20196	6
944.32663	4
944.45129	6
944.57596	6
944.70063	8
944.8253	4
944.94997	6
945.07464	-1
945.19931	6
945.32398	5
945.44866	7
945.57333	3
945.698	6
945.82268	0
945.94735	1
946.07203	4
946.19671	6
946.32139	5
946.44607	3
946.57075	2
946.69543	2
946.82011	2
946.94479	7
947.06947	5
947.19416	4
947.31884	2
947.44353	1
947.56821	6
947.6929	3
947.81759	4
947.94228	7
948.06696	4
948.19165	7
948.31635	6
948.44104	9
948.56573	4
948.69042	0
948.81512	4
948.93981	8
949.06451	6
949.1892	4
949.3139	5
949.4386	5
949.5633	-1
949.68799	6
949.81269	7
949.9374	3
950.0621	8
950.1868	5
950.3115	3
950.43621	4
950.56091	6
950.68562	5
950.81032	3
950.93503	4
951.05974	3
951.18445	3
951.30915	6
951.43386	1
951.55857	2
951.68329	6
951.808	4
951.93271	5
952.05742	5
952.18214	1
952.30685	3
952.43157	1
952.55629	7
952.681	6
952.80572	3
952.93044	7
953.05516	2
953.17988	5
953.3046	3
953.42933	6
953.55405	1
953.67877	4
953.8035	9
953.92822	5
954.05295	2
954.17767	3
954.3024	1
954.42713	2
954.55186	4
954.67659	3
954.80132	8
954.92605	8
955.05078	3
955.17551	7
955.30024	2
955.42498	3
955.54971	6
955.67445	2
955.79918	6
955.92392	1
956.04866	4
956.1734	7
956.29814	4
956.42288	6
956.54762	9
956.67236	4
956.7971	4
956.92184	4
957.04659	4
957.17133	2
957.29607	2
957.42082	-4
957.54557	6
957.67031	6
957.79506	8
957.91981	1
958.04456	6
958.16931	3
958.29406	4
958.41881	4
958.54356	5
958.66832	7
958.79307	5
958.91782	6
959.04258	2
959.16734	5
959.29209	4
959.41685	-2
959.54161	5
959.66637	6
959.79113	5
959.91589	4
960.04065	6
960.16541	6
960.29017	3
960.41493	6
960.5397	5
960.66446	4
960.78923	2
960.91399	6
961.03876	6
961.16353	9
961.28829	7
961.41306	4
961.53783	7
961.6626	4
961.78737	6
961.91215	1
962.03692	4
962.16169	7
962.28646	7
962.41124	4
962.53601	3
962.66079	3
962.78557	8
962.91034	1
963.03512	4
963.1599	4
963.28468	4
963.40946	7
963.53424	6
963.65902	1
963.7838	4
