637.2945	133
637.41686	132
637.53923	124
637.6616	152
637.78397	136
637.90634	110
638.02871	136
638.15108	140
638.27346	118
638.39584	160
638.51822	142
638.64059	151
638.76298	131
638.88536	140
639.00774	112
639.13013	159
639.25251	122
639.3749	124
639.49729	143
639.61968	164
639.74208	133
639.86447	118
639.98687	150
640.10926	157
640.23166	123
640.35406	140
640.47646	112
640.59887	143
640.72127	135
640.84368	148
640.96608	155
641.08849	144
641.2109	134
641.33331	135
641.45573	137
641.57814	153
641.70056	151
641.82297	144
641.94539	139
642.06781	122
642.19023	141
642.31266	138
642.43508	144
642.55751	143
642.67993	135
642.80236	133
642.92479	124
643.04722	134
643.16966	148
643.29209	130
643.41453	117
643.53696	135
643.6594	127
643.78184	126
643.90428	141
644.02673	114
644.14917	145
644.27162	121
644.39406	140
644.51651	142
644.63896	136
644.76141	142
644.88387	134
645.00632	137
645.12878	116
645.25123	117
645.37369	135
645.49615	132
645.61861	137
645.74108	115
645.86354	132
645.98601	143
646.10847	109
646.23094	138
646.35341	117
646.47588	137
646.59836	144
646.72083	139
646.84331	137
646.96578	134
647.08826	126
647.21074	137
647.33322	141
647.4557	128
647.57819	154
647.70067	124
647.82316	129
647.94565	125
648.06814	142
648.19063	121
648.31312	118
648.43562	116
648.55811	125
648.68061	160
648.80311	139
648.9256	124
649.04811	146
649.17061	147
649.29311	125
649.41562	127
649.53812	127
649.66063	108
649.78314	146
649.90565	125
650.02816	135
650.15068	145
650.27319	126
650.39571	152
650.51822	135
650.64074	133
650.76326	114
650.88579	119
651.00831	140
651.13083	128
651.25336	132
651.37589	127
651.49842	133
651.62095	149
651.74348	116
651.86601	109
651.98854	129
652.11108	127
652.23362	135
652.35616	145
652.4787	115
652.60124	135
652.72378	135
652.84632	157
652.96887	155
653.09142	156
653.21396	147
653.33651	146
653.45906	148
653.58162	147
653.70417	147
653.82672	144
653.94928	140
654.07184	143
654.1944	142
654.31696	148
654.43952	138
654.56208	152
654.68465	137
654.80721	141
654.92978	142
655.05235	134
655.17492	163
655.29749	132
655.42006	102
655.54264	122
655.66521	137
655.78779	127
655.91037	124
656.03295	138
656.15553	136
656.27811	137
656.4007	146
656.52328	148
656.64587	132
656.76846	111
656.89105	118
657.01364	135
657.13623	123
657.25882	97
657.38142	114
657.50401	127
657.62661	135
657.74921	113
657.87181	132
657.99441	123
658.11701	116
658.23962	116
658.36222	138
658.48483	99
658.60744	94
658.73005	114
658.85266	127
658.97527	117
659.09789	134
659.2205	120
659.34312	132
659.46574	123
659.58836	123
659.71098	124
659.8336	122
659.95622	126
660.07885	116
660.20147	128
660.3241	126
660.44673	130
660.56936	117
660.69199	132
660.81462	138
660.93726	117
661.05989	110
661.18253	129
661.30517	139
661.4278	115
661.55045	141
661.67309	115
661.79573	130
661.91838	126
662.04102	140
662.16367	110
662.28632	105
662.40897	129
662.53162	130
662.65427	130
662.77693	123
662.89958	120
663.02224	131
663.1449	116
663.26756	121
663.39022	129
663.51288	128
663.63554	125
663.75821	104
663.88087	115
664.00354	130
664.12621	137
664.24888	131
664.37155	149
664.49422	138
664.6169	130
664.73957	134
664.86225	141
664.98493	133
665.10761	145
665.23029	149
665.35297	130
665.47565	99
665.59834	129
665.72102	139
665.84371	120
665.9664	130
666.08909	125
666.21178	126
666.33447	124
666.45717	139
666.57986	123
666.70256	126
666.82526	106
666.94796	120
667.07066	125
667.19336	94
667.31606	128
667.43877	111
667.56147	93
667.68418	112
667.80689	113
667.9296	109
668.05231	102
668.17502	114
668.29774	124
668.42045	96
668.54317	115
668.66589	115
668.7886	117
668.91132	118
669.03405	126
669.15677	109
669.27949	98
669.40222	103
669.52495	132
669.64767	105
669.7704	115
669.89313	101
670.01587	109
670.1386	104
670.26133	111
670.38407	111
670.50681	106
670.62954	105
670.75228	102
670.87503	104
670.99777	109
671.12051	106
671.24326	123
671.366	112
671.48875	116
671.6115	137
671.73425	113
671.857	112
671.97975	104
672.10251	106
672.22526	104
672.34802	104
672.47078	107
672.59354	119
672.7163	130
672.83906	113
672.96182	112
673.08459	120
673.20735	97
673.33012	105
673.45289	111
673.57566	94
673.69843	104
673.8212	129
673.94397	124
674.06675	106
674.18952	113
674.3123	121
674.43508	112
674.55786	111
674.68064	105
674.80342	104
674.92621	89
675.04899	110
675.17178	94
675.29457	110
675.41735	116
675.54014	99
675.66294	103
675.78573	115
675.90852	116
676.03132	101
676.15411	100
676.27691	95
676.39971	106
676.52251	107
676.64531	111
676.76811	98
676.89092	116
677.01372	97
677.13653	102
677.25934	93
677.38215	101
677.50496	112
677.62777	103
677.75058	121
677.8734	115
677.99621	106
678.11903	102
678.24185	109
678.36467	101
678.48749	113
678.61031	99
678.73313	90
678.85596	115
678.97878	100
679.10161	110
679.22444	105
679.34727	104
679.4701	104
679.59293	107
679.71576	109
679.8386	96
679.96143	117
680.08427	100
680.20711	107
680.32995	105
680.45279	90
680.57563	105
680.69847	108
680.82132	106
680.94416	106
681.06701	104
681.18986	118
681.31271	110
681.43556	106
681.55841	95
681.68126	92
681.80412	102
681.92697	99
682.04983	94
682.17269	101
682.29555	99
682.41841	103
682.54127	115
682.66413	103
682.787	81
682.90986	103
683.03273	96
683.1556	97
683.27847	106
683.40134	84
683.52421	102
683.64708	108
683.76996	99
683.89283	96
684.01571	112
684.13859	113
684.26147	103
684.38435	90
684.50723	100
684.63011	121
684.753	112
684.87588	102
684.99877	111
685.12166	110
685.24454	97
685.36744	92
685.49033	116
685.61322	102
685.73611	93
685.85901	104
685.98191	104
686.1048	98
686.2277	101
686.3506	100
686.4735	70
686.59641	107
686.71931	102
686.84222	100
686.96512	91
687.08803	98
687.21094	97
687.33385	106
687.45676	82
687.57967	108
687.70259	87
687.8255	101
687.94842	113
688.07133	111
688.19425	88
688.31717	102
688.44009	85
688.56302	120
688.68594	97
688.80886	82
688.93179	96
689.05472	95
689.17764	94
689.30057	112
689.4235	86
689.54644	113
689.66937	93
689.7923	94
689.91524	91
690.03818	112
690.16111	103
690.28405	92
690.40699	100
690.52994	97
690.65288	88
690.77582	103
690.89877	101
691.02171	103
691.14466	95
691.26761	90
691.39056	87
691.51351	91
691.63646	95
691.75942	101
691.88237	101
692.00533	98
692.12829	97
692.25124	88
692.3742	98
692.49716	99
692.62013	92
692.74309	97
692.86605	96
692.98902	90
693.11199	89
693.23495	91
693.35792	87
693.48089	87
693.60387	92
693.72684	95
693.84981	93
693.97279	91
694.09576	88
694.21874	86
694.34172	101
694.4647	100
694.58768	85
694.71066	92
694.83365	103
694.95663	89
695.07962	103
695.2026	83
695.32559	98
695.44858	101
695.57157	88
695.69456	87
695.81756	99
695.94055	103
696.06355	97
696.18654	85
696.30954	88
696.43254	90
696.55554	90
696.67854	85
696.80154	95
696.92455	94
697.04755	96
697.17056	76
697.29356	99
697.41657	89
697.53958	94
697.66259	88
697.7856	98
697.90862	79
698.03163	84
698.15465	86
698.27766	85
698.40068	97
698.5237	88
698.64672	92
698.76974	96
698.89276	96
699.01579	82
699.13881	92
699.26184	91
699.38486	101
699.50789	87
699.63092	103
699.75395	94
699.87698	102
700.00002	91
700.12305	96
700.24609	88
700.36912	91
700.49216	89
700.6152	97
700.73824	83
700.86128	80
700.98432	88
701.10736	83
701.23041	90
701.35345	76
701.4765	94
701.59955	94
701.7226	94
701.84565	95
701.9687	85
702.09175	83
702.21481	86
702.33786	88
702.46092	87
702.58397	83
702.70703	76
702.83009	101
702.95315	110
703.07621	107
703.19928	117
703.32234	103
703.44541	105
703.56847	113
703.69154	102
703.81461	98
703.93768	115
704.06075	106
704.18382	89
704.30689	103
704.42997	104
704.55304	108
704.67612	109
704.7992	103
704.92228	100
705.04536	85
705.16844	104
705.29152	91
705.4146	83
705.53769	86
705.66077	89
705.78386	73
705.90695	92
706.03004	91
706.15313	85
706.27622	76
706.39931	86
706.52241	81
706.6455	85
706.7686	78
706.89169	75
707.01479	85
707.13789	90
707.26099	88
707.38409	83
707.5072	97
707.6303	83
707.7534	93
707.87651	85
707.99962	88
708.12273	81
708.24584	90
708.36895	83
708.49206	80
708.61517	93
708.73828	93
708.8614	77
708.98452	79
709.10763	84
709.23075	92
709.35387	77
709.47699	81
709.60011	86
709.72324	88
709.84636	88
709.96949	80
710.09261	93
710.21574	88
710.33887	79
710.462	80
710.58513	78
710.70826	97
710.83139	73
710.95453	70
711.07766	80
711.2008	85
711.32394	79
711.44707	85
711.57021	85
711.69335	86
711.8165	80
711.93964	86
712.06278	83
712.18593	81
712.30908	87
712.43222	78
712.55537	76
712.67852	81
712.80167	80
712.92482	83
713.04798	78
713.17113	76
713.29428	88
713.41744	88
713.5406	85
713.66376	75
713.78692	94
713.91008	79
714.03324	78
714.1564	73
714.27957	85
714.40273	86
714.5259	84
714.64906	74
714.77223	94
714.8954	82
715.01857	77
715.14174	86
715.26492	80
715.38809	88
715.51126	72
715.63444	78
715.75762	82
715.8808	82
716.00397	71
716.12715	77
716.25034	82
716.37352	71
716.4967	73
716.61989	89
716.74307	79
716.86626	93
716.98945	76
717.11264	80
717.23583	83
717.35902	76
717.48221	76
717.6054	73
717.7286	69
717.85179	81
717.97499	79
718.09819	78
718.22138	83
718.34458	84
718.46779	82
718.59099	73
718.71419	84
718.83739	84
718.9606	71
719.08381	85
719.20701	74
719.33022	77
719.45343	75
719.57664	80
719.69985	93
719.82307	67
719.94628	77
720.06949	78
720.19271	80
720.31593	89
720.43914	67
720.56236	77
720.68558	71
720.8088	82
720.93203	83
721.05525	79
721.17847	83
721.3017	82
721.42493	67
721.54815	69
721.67138	72
721.79461	70
721.91784	78
722.04108	76
722.16431	72
722.28754	74
722.41078	78
722.53401	81
722.65725	64
722.78049	90
722.90373	69
723.02697	74
723.15021	79
723.27345	80
723.3967	69
723.51994	60
723.64319	80
723.76643	80
723.88968	72
724.01293	78
724.13618	72
724.25943	80
724.38268	81
724.50593	76
724.62919	71
724.75244	86
724.8757	82
724.99896	82
725.12221	82
725.24547	78
725.36873	87
725.49199	74
725.61526	91
725.73852	82
725.86178	77
725.98505	78
726.10832	86
726.23158	88
726.35485	75
726.47812	88
726.60139	77
726.72466	88
726.84794	81
726.97121	73
727.09449	70
727.21776	68
727.34104	74
727.46432	64
727.5876	65
727.71088	76
727.83416	72
727.95744	76
728.08072	63
728.20401	69
728.32729	75
728.45058	72
728.57386	70
728.69715	64
728.82044	71
728.94373	68
729.06702	77
729.19032	76
729.31361	70
729.4369	68
729.5602	69
729.6835	69
729.80679	70
729.93009	61
730.05339	67
730.17669	65
730.29999	72
730.4233	71
730.5466	74
730.6699	74
730.79321	72
730.91652	72
731.03982	69
731.16313	76
731.28644	90
731.40975	69
731.53307	68
731.65638	64
731.77969	79
731.90301	71
732.02632	61
732.14964	66
732.27296	69
732.39628	61
732.5196	69
732.64292	77
732.76624	71
732.88956	72
733.01289	71
733.13621	69
733.25954	71
733.38286	65
733.50619	68
733.62952	72
733.75285	62
733.87618	67
733.99951	66
734.12285	62
734.24618	68
734.36951	70
734.49285	70
734.61619	65
734.73953	79
734.86286	72
734.9862	74
735.10955	70
735.23289	79
735.35623	57
735.47957	71
735.60292	67
735.72627	72
735.84961	65
735.97296	68
736.09631	71
736.21966	71
736.34301	65
736.46636	81
736.58972	74
736.71307	76
736.83642	69
736.95978	64
737.08314	65
737.2065	74
737.32985	66
737.45321	70
737.57657	72
737.69994	71
737.8233	74
737.94666	60
738.07003	78
738.19339	75
738.31676	66
738.44013	66
738.5635	67
738.68687	61
738.81024	64
738.93361	78
739.05698	76
739.18036	65
739.30373	67
739.42711	58
739.55048	56
739.67386	67
739.79724	63
739.92062	66
740.044	66
740.16738	61
740.29076	64
740.41415	66
740.53753	56
740.66092	71
740.7843	64
740.90769	66
741.03108	75
741.15447	65
741.27786	66
741.40125	69
741.52464	72
741.64803	64
741.77143	62
741.89482	69
742.01822	67
742.14162	60
742.26501	66
742.38841	62
742.51181	73
742.63521	65
742.75862	60
742.88202	62
743.00542	61
743.12883	67
743.25223	66
743.37564	63
743.49905	58
743.62246	64
743.74587	52
743.86928	62
743.99269	63
744.1161	67
744.23951	61
744.36293	63
744.48634	61
744.60976	66
744.73318	56
744.8566	61
744.98001	56
745.10343	60
745.22686	56
745.35028	69
745.4737	62
745.59712	58
745.72055	60
745.84398	59
745.9674	59
746.09083	60
746.21426	69
746.33769	62
746.46112	68
746.58455	63
746.70798	63
746.83142	57
746.95485	66
747.07829	72
747.20172	63
747.32516	71
747.4486	64
747.57204	69
747.69548	69
747.81892	66
747.94236	60
748.0658	70
748.18925	80
748.31269	72
748.43614	70
748.55958	68
748.68303	63
748.80648	62
748.92993	50
749.05338	63
749.17683	57
749.30028	51
749.42373	61
749.54719	68
749.67064	70
749.7941	60
749.91756	65
750.04101	58
750.16447	63
750.28793	61
750.41139	60
750.53485	58
750.65832	55
750.78178	64
750.90524	61
751.02871	58
751.15218	57
751.27564	48
751.39911	54
751.52258	57
751.64605	52
751.76952	52
751.89299	51
752.01646	55
752.13994	65
752.26341	60
752.38689	45
752.51036	56
752.63384	58
752.75732	52
752.8808	57
753.00428	52
753.12776	62
753.25124	60
753.37472	60
753.49821	53
753.62169	52
753.74518	57
753.86866	60
753.99215	55
754.11564	56
754.23913	53
754.36262	60
754.48611	64
754.6096	59
754.73309	48
754.85659	53
754.98008	52
755.10358	58
755.22707	60
755.35057	53
755.47407	46
755.59757	46
755.72107	51
755.84457	44
755.96807	58
756.09157	46
756.21508	54
756.33858	59
756.46208	55
756.58559	53
756.7091	57
756.83261	53
756.95612	52
757.07963	52
757.20314	50
757.32665	55
757.45016	49
757.57367	50
757.69719	50
757.8207	56
757.94422	48
758.06774	48
758.19125	50
758.31477	49
758.43829	40
758.56181	49
758.68533	54
758.80886	52
758.93238	63
759.0559	49
759.17943	48
759.30296	51
759.42648	50
759.55001	57
759.67354	53
759.79707	55
759.9206	53
760.04413	52
760.16766	56
760.29119	55
760.41473	48
760.53826	54
760.6618	59
760.78534	50
760.90887	53
761.03241	50
761.15595	54
761.27949	60
761.40303	51
761.52657	44
761.65012	51
761.77366	44
761.8972	52
762.02075	59
762.1443	54
762.26784	49
762.39139	48
762.51494	52
762.63849	49
762.76204	48
762.88559	47
763.00914	52
763.1327	41
