537.66633	222
537.78794	218
537.90956	228
538.03118	203
538.1528	208
538.27442	207
538.39605	209
538.51767	209
538.6393	212
538.76093	223
538.88256	208
539.00419	210
539.12583	233
539.24746	210
539.3691	230
539.49073	226
539.61237	227
539.73402	216
539.85566	221
539.9773	224
540.09895	220
540.22059	203
540.34224	216
540.46389	220
540.58555	207
540.7072	209
540.82885	203
540.95051	221
541.07217	228
541.19383	222
541.31549	221
541.43715	211
541.55881	190
541.68048	196
541.80215	211
541.92382	226
542.04549	218
542.16716	211
542.28883	210
542.4105	206
542.53218	208
542.65386	206
542.77554	213
542.89722	224
543.0189	216
543.14058	206
543.26227	198
543.38396	210
543.50564	212
543.62733	206
543.74902	216
543.87072	201
543.99241	250
544.11411	226
544.2358	251
544.3575	234
544.4792	233
544.60091	225
544.72261	234
544.84431	268
544.96602	245
545.08773	256
545.20944	244
545.33115	234
545.45286	247
545.57457	267
545.69629	248
545.81801	252
545.93972	230
546.06144	250
546.18316	240
546.30489	251
546.42661	214
546.54834	205
546.67006	232
546.79179	216
546.91352	221
547.03526	193
547.15699	189
547.27872	184
547.40046	202
547.5222	211
547.64394	206
547.76568	195
547.88742	201
548.00916	204
548.13091	195
548.25265	205
548.3744	194
548.49615	202
548.6179	197
548.73966	208
548.86141	195
548.98317	209
549.10492	194
549.22668	172
549.34844	196
549.4702	204
549.59197	229
549.71373	175
549.8355	197
549.95726	205
550.07903	183
550.2008	208
550.32257	207
550.44435	198
550.56612	202
550.6879	203
550.80968	194
550.93146	190
551.05324	197
551.17502	204
551.2968	203
551.41859	191
551.54037	189
551.66216	174
551.78395	206
551.90574	205
552.02754	176
552.14933	190
552.27112	183
552.39292	198
552.51472	204
552.63652	165
552.75832	178
552.88012	187
553.00193	192
553.12373	208
553.24554	179
553.36735	202
553.48916	196
553.61097	166
553.73278	186
553.8546	194
553.97641	178
554.09823	192
554.22005	179
554.34187	182
554.46369	186
554.58552	175
554.70734	187
554.82917	190
554.95099	177
555.07282	182
555.19465	189
555.31649	201
555.43832	187
555.56015	198
555.68199	212
555.80383	198
555.92567	207
556.04751	201
556.16935	188
556.29119	185
556.41304	181
556.53489	172
556.65673	161
556.77858	176
556.90043	184
557.02229	177
557.14414	185
557.26599	199
557.38785	197
557.50971	180
557.63157	177
557.75343	184
557.87529	173
557.99716	174
558.11902	162
558.24089	176
558.36276	176
558.48463	178
558.6065	180
558.72837	185
558.85024	176
558.97212	184
559.094	164
559.21587	184
559.33775	186
559.45963	177
559.58152	189
559.7034	189
559.82529	178
559.94717	142
560.06906	169
560.19095	182
560.31284	196
560.43473	178
560.55663	183
560.67852	174
560.80042	189
560.92232	197
561.04422	190
561.16612	199
561.28802	200
561.40993	191
561.53183	174
561.65374	187
561.77565	177
561.89756	184
562.01947	177
562.14138	183
562.26329	164
562.38521	179
562.50713	183
562.62904	170
562.75096	163
562.87289	211
562.99481	194
563.11673	166
563.23866	176
563.36058	168
563.48251	180
563.60444	188
563.72637	166
563.84831	172
563.97024	173
564.09217	177
564.21411	172
564.33605	168
564.45799	163
564.57993	173
564.70187	158
564.82382	183
564.94576	180
565.06771	150
565.18965	162
565.3116	193
565.43355	177
565.55551	166
565.67746	163
565.79942	156
565.92137	161
566.04333	159
566.16529	157
566.28725	185
566.40921	161
566.53117	169
566.65314	190
566.77511	162
566.89707	179
567.01904	198
567.14101	160
567.26298	171
567.38496	180
567.50693	145
567.62891	184
567.75089	158
567.87286	177
567.99484	164
568.11683	180
568.23881	171
568.36079	182
568.48278	177
568.60477	191
568.72675	152
568.84874	187
568.97074	167
569.09273	178
569.21472	183
569.33672	172
569.45871	172
569.58071	188
569.70271	136
569.82471	179
569.94672	161
570.06872	192
570.19073	169
570.31273	170
570.43474	168
570.55675	165
570.67876	169
570.80077	169
570.92279	178
571.0448	178
571.16682	180
571.28883	174
571.41085	148
571.53287	156
571.6549	154
571.77692	169
571.89894	165
572.02097	168
572.143	161
572.26502	139
572.38705	176
572.50909	181
572.63112	168
572.75315	165
572.87519	177
572.99723	170
573.11926	179
573.2413	183
573.36334	170
573.48539	171
573.60743	179
573.72948	167
573.85152	145
573.97357	152
574.09562	192
574.21767	154
574.33972	172
574.46177	168
574.58383	142
574.70589	181
574.82794	165
574.95	154
575.07206	174
575.19412	171
575.31619	153
575.43825	180
575.56032	151
575.68238	146
575.80445	156
575.92652	160
576.04859	161
576.17066	157
576.29274	147
576.41481	170
576.53689	164
576.65897	167
576.78105	156
576.90313	179
577.02521	175
577.14729	149
577.26938	167
577.39146	163
577.51355	187
577.63564	167
577.75773	168
577.87982	128
578.00191	183
578.12401	155
578.2461	168
578.3682	160
578.4903	169
578.6124	168
578.7345	169
578.8566	161
578.9787	176
579.10081	172
579.22291	155
579.34502	170
579.46713	152
579.58924	181
579.71135	180
579.83346	160
579.95558	168
580.07769	136
580.19981	163
580.32193	158
580.44405	154
580.56617	152
580.68829	182
580.81041	142
580.93254	156
581.05467	154
581.17679	154
581.29892	148
581.42105	148
581.54318	161
581.66532	143
581.78745	170
581.90959	169
582.03172	152
582.15386	158
582.276	146
582.39814	142
582.52028	162
582.64243	147
582.76457	168
582.88672	177
583.00886	146
583.13101	143
583.25316	176
583.37532	171
583.49747	160
583.61962	172
583.74178	165
583.86393	153
583.98609	157
584.10825	167
584.23041	180
584.35257	179
584.47474	175
584.5969	195
584.71907	185
584.84124	203
584.9634	197
585.08557	203
585.20775	199
585.32992	176
585.45209	186
585.57427	205
585.69644	192
585.81862	191
585.9408	180
586.06298	205
586.18516	187
586.30734	176
586.42953	189
586.55171	177
586.6739	144
586.79609	170
586.91828	143
587.04047	181
587.16266	175
587.28486	150
587.40705	177
587.52925	156
587.65144	127
587.77364	160
587.89584	188
588.01804	161
588.14025	153
588.26245	176
588.38466	145
588.50686	185
588.62907	150
588.75128	138
588.87349	155
588.9957	152
589.11791	138
589.24013	131
589.36234	166
589.48456	162
589.60678	136
589.729	158
589.85122	145
589.97344	168
590.09566	167
590.21789	140
590.34012	129
590.46234	171
590.58457	152
590.7068	157
590.82903	161
590.95126	152
591.0735	149
591.19573	140
591.31797	146
591.44021	182
591.56245	166
591.68469	135
591.80693	146
591.92917	121
592.05141	170
592.17366	129
592.29591	154
592.41815	132
592.5404	152
592.66265	151
592.7849	137
592.90716	169
593.02941	153
593.15167	149
593.27392	174
593.39618	160
593.51844	131
593.6407	142
593.76296	160
593.88523	132
594.00749	156
594.12976	138
594.25202	155
594.37429	129
594.49656	168
594.61883	146
594.7411	140
594.86338	151
594.98565	142
595.10793	145
595.2302	142
595.35248	134
595.47476	155
595.59704	156
595.71933	127
595.84161	149
595.96389	174
596.08618	163
596.20847	153
596.33075	154
596.45304	170
596.57534	157
596.69763	162
596.81992	168
596.94222	146
597.06451	136
597.18681	138
597.30911	135
597.43141	152
597.55371	150
597.67601	156
597.79831	141
597.92062	147
598.04293	146
598.16523	171
598.28754	153
598.40985	168
598.53216	124
598.65447	139
598.77679	140
598.8991	133
599.02142	151
599.14374	123
599.26606	144
599.38838	152
599.5107	159
599.63302	143
599.75534	121
599.87767	119
599.99999	130
600.12232	159
600.24465	146
600.36698	130
600.48931	127
600.61164	136
600.73398	169
600.85631	148
600.97865	176
601.10098	143
601.22332	151
601.34566	136
601.468	134
601.59035	162
601.71269	138
601.83503	151
601.95738	117
602.07973	126
602.20208	149
602.32442	144
602.44678	142
602.56913	167
602.69148	118
602.81384	117
602.93619	150
603.05855	150
603.18091	121
603.30327	132
603.42563	113
603.54799	122
603.67035	145
603.79272	148
603.91508	138
604.03745	132
604.15982	136
604.28219	143
604.40456	147
604.52693	130
604.6493	140
604.77168	163
604.89405	149
605.01643	144
605.13881	146
605.26119	121
605.38357	145
605.50595	146
605.62833	136
605.75071	142
605.8731	154
605.99549	118
606.11787	136
606.24026	146
606.36265	139
606.48504	134
606.60744	122
606.72983	136
606.85222	158
606.97462	138
607.09702	144
607.21942	141
607.34182	124
607.46422	145
607.58662	123
607.70902	123
607.83143	144
607.95383	168
608.07624	152
608.19865	141
608.32106	170
608.44347	166
608.56588	131
608.68829	125
608.81071	127
608.93312	124
609.05554	131
609.17796	119
609.30038	115
609.4228	140
609.54522	143
609.66764	134
609.79007	139
609.91249	128
610.03492	131
610.15734	126
610.27977	142
610.4022	134
610.52463	119
610.64707	158
610.7695	155
610.89193	145
611.01437	146
611.13681	125
611.25925	122
611.38169	152
611.50413	127
611.62657	136
611.74901	143
611.87145	147
611.9939	131
612.11635	122
612.23879	133
612.36124	150
612.48369	129
612.60615	137
612.7286	127
612.85105	153
612.97351	107
613.09596	120
613.21842	132
613.34088	142
613.46334	135
613.5858	109
613.70826	135
613.83072	144
613.95319	138
614.07565	113
614.19812	133
614.32059	158
614.44306	136
614.56553	135
614.688	134
614.81047	132
614.93295	127
615.05542	151
615.1779	144
615.30037	141
615.42285	144
615.54533	121
615.66781	136
615.79029	141
615.91278	134
616.03526	133
616.15775	135
616.28023	141
616.40272	120
616.52521	146
616.6477	152
616.77019	129
616.89268	148
617.01518	120
617.13767	102
617.26017	137
617.38267	154
617.50517	163
617.62766	150
617.75017	105
617.87267	138
617.99517	137
618.11767	143
618.24018	143
618.36269	150
618.48519	127
618.6077	142
618.73021	137
618.85272	132
618.97524	155
619.09775	113
619.22026	146
619.34278	135
619.4653	132
619.58781	116
619.71033	157
619.83285	150
619.95538	116
620.0779	149
620.20042	129
620.32295	144
620.44547	127
620.568	137
620.69053	124
620.81306	105
620.93559	175
621.05812	157
621.18065	113
621.30319	143
621.42572	125
621.54826	132
621.6708	127
621.79334	111
621.91588	157
622.03842	124
622.16096	123
622.2835	131
622.40605	137
622.52859	136
622.65114	146
622.77369	148
622.89624	153
623.01879	144
623.14134	140
623.26389	136
623.38644	127
623.509	135
623.63155	135
623.75411	134
623.87667	141
623.99923	109
624.12179	135
624.24435	154
624.36691	124
624.48948	147
624.61204	123
624.73461	137
624.85717	126
624.97974	126
625.10231	119
625.22488	121
625.34745	147
625.47003	141
625.5926	142
625.71518	144
625.83775	136
625.96033	118
626.08291	138
626.20549	108
626.32807	118
626.45065	136
626.57323	127
626.69582	128
626.8184	153
626.94099	146
627.06357	139
627.18616	137
627.30875	129
627.43134	142
627.55394	145
627.67653	146
627.79912	108
627.92172	142
628.04431	134
628.16691	131
628.28951	142
628.41211	137
628.53471	141
628.65731	115
628.77991	122
628.90252	128
629.02512	126
629.14773	119
629.27034	147
629.39295	114
629.51556	131
629.63817	123
629.76078	134
629.88339	152
630.00601	134
630.12862	121
630.25124	119
630.37385	112
630.49647	137
630.61909	123
630.74171	115
630.86433	129
630.98696	127
631.10958	114
631.23221	153
631.35483	132
631.47746	141
631.60009	133
631.72272	149
631.84535	163
631.96798	110
632.09061	121
632.21325	162
632.33588	140
632.45852	118
632.58115	146
632.70379	136
632.82643	167
632.94907	139
633.07171	113
633.19436	137
633.317	132
633.43965	138
633.56229	125
633.68494	141
633.80759	129
633.93024	141
634.05289	130
634.17554	136
634.29819	122
634.42084	145
634.5435	156
634.66615	148
634.78881	117
634.91147	126
635.03413	132
635.15679	138
635.27945	156
635.40211	129
635.52477	139
635.64744	143
635.7701	150
635.89277	116
636.01544	135
636.13811	133
636.26077	139
636.38345	128
636.50612	142
636.62879	114
636.75146	134
636.87414	114
636.99682	141
637.11949	121
637.24217	125
637.36485	141
637.48753	151
637.61021	134
637.73289	144
637.85558	140
637.97826	124
638.10095	169
638.22364	132
638.34632	141
638.46901	121
638.5917	147
638.71439	162
638.83709	128
638.95978	149
639.08247	139
639.20517	142
639.32787	130
639.45056	126
639.57326	145
639.69596	127
639.81866	117
639.94136	132
640.06407	162
640.18677	136
640.30947	145
640.43218	132
640.55489	130
640.6776	124
640.8003	122
640.92301	134
641.04573	144
641.16844	118
641.29115	133
641.41387	115
641.53658	143
641.6593	144
641.78202	125
641.90473	135
642.02745	131
642.15017	141
642.2729	104
642.39562	125
642.51834	144
642.64107	136
642.76379	150
642.88652	115
643.00925	138
643.13198	123
643.25471	130
643.37744	136
643.50017	112
643.6229	130
643.74564	127
643.86837	113
643.99111	141
644.11385	129
644.23659	120
644.35933	138
644.48207	135
644.60481	129
644.72755	157
644.85029	136
644.97304	131
645.09578	134
645.21853	133
645.34128	134
645.46403	144
645.58678	109
645.70953	121
645.83228	140
645.95503	120
646.07779	133
646.20054	131
646.3233	114
646.44605	127
646.56881	153
646.69157	130
646.81433	118
646.93709	121
647.05986	139
647.18262	129
647.30538	118
647.42815	128
647.55091	129
647.67368	116
647.79645	132
647.91922	129
648.04199	136
648.16476	138
648.28753	130
648.41031	113
648.53308	128
648.65586	137
648.77863	139
648.90141	129
649.02419	132
649.14697	119
649.26975	138
649.39253	107
649.51531	111
649.6381	113
649.76088	124
649.88367	113
650.00645	122
650.12924	111
650.25203	123
650.37482	131
650.49761	140
650.6204	113
650.74319	130
650.86599	125
650.98878	147
651.11158	129
651.23438	123
651.35717	130
651.47997	129
651.60277	142
651.72557	162
651.84837	125
651.97118	126
652.09398	155
652.21679	158
652.33959	163
652.4624	139
652.58521	154
652.70801	128
652.83082	123
652.95363	144
653.07645	159
653.19926	153
653.32207	156
653.44489	124
653.5677	133
653.69052	141
653.81334	133
653.93616	141
654.05898	161
654.1818	146
654.30462	164
654.42744	143
654.55027	126
654.67309	124
654.79592	120
654.91874	115
655.04157	123
655.1644	118
655.28723	114
655.41006	160
655.53289	130
655.65572	135
655.77856	127
655.90139	122
656.02423	120
656.14706	121
656.2699	125
656.39274	122
656.51558	106
656.63842	121
656.76126	134
656.8841	121
657.00695	108
657.12979	123
657.25264	134
657.37548	102
657.49833	137
657.62118	125
657.74403	133
657.86688	105
657.98973	120
658.11258	138
658.23543	118
658.35829	100
658.48114	132
658.604	130
658.72686	110
658.84971	119
658.97257	126
659.09543	122
659.21829	113
659.34116	119
659.46402	110
659.58688	111
659.70975	127
659.83261	121
659.95548	107
660.07835	115
660.20122	133
660.32409	126
660.44696	127
660.56983	125
660.6927	102
660.81557	107
660.93845	118
661.06132	134
661.1842	135
661.30708	119
661.42996	120
661.55284	109
661.67572	131
661.7986	123
661.92148	120
662.04436	115
662.16725	107
662.29013	120
662.41302	156
662.5359	122
662.65879	116
662.78168	104
