736.93946	65
737.06254	69
737.18562	73
737.3087	68
737.43179	67
737.55488	71
737.67796	68
737.80105	75
737.92414	74
738.04723	64
738.17033	64
738.29342	70
738.41652	71
738.53961	73
738.66271	72
738.78581	73
738.90891	73
739.03202	65
739.15512	74
739.27823	69
739.40133	78
739.52444	64
739.64755	71
739.77066	77
739.89377	63
740.01689	69
740.14	69
740.26312	66
740.38624	69
740.50936	65
740.63248	77
740.7556	53
740.87872	66
741.00185	66
741.12497	67
741.2481	70
741.37123	65
741.49436	61
741.61749	64
741.74062	65
741.86375	64
741.98689	56
742.11003	62
742.23316	60
742.3563	65
742.47944	59
742.60259	66
742.72573	63
742.84887	68
742.97202	67
743.09517	66
743.21832	61
743.34147	67
743.46462	61
743.58777	76
743.71092	70
743.83408	61
743.95724	62
744.0804	58
744.20355	71
744.32672	64
744.44988	62
744.57304	54
744.69621	63
744.81937	63
744.94254	60
745.06571	64
745.18888	58
745.31205	64
745.43522	69
745.5584	63
745.68157	63
745.80475	59
745.92793	65
746.05111	65
746.17429	50
746.29747	68
746.42065	78
746.54384	61
746.66703	69
746.79021	65
746.9134	67
747.03659	67
747.15978	62
747.28298	72
747.40617	68
747.52937	77
747.65256	64
747.77576	16
747.89896	71
748.02216	59
748.14536	60
748.26857	64
748.39177	70
748.51498	65
748.63818	72
748.76139	66
748.8846	69
749.00782	62
749.13103	59
749.25424	66
749.37746	64
749.50067	61
749.62389	63
749.74711	60
749.87033	55
749.99355	54
750.11678	58
750.24	54
750.36323	66
750.48645	64
750.60968	49
750.73291	64
750.85614	64
750.97938	57
751.10261	59
751.22584	60
751.34908	58
751.47232	53
751.59556	61
751.7188	60
751.84204	57
751.96528	62
752.08853	60
752.21177	63
752.33502	65
752.45827	50
752.58152	50
752.70477	55
752.82802	64
752.95127	67
753.07453	59
753.19778	61
753.32104	55
753.4443	57
753.56756	54
753.69082	48
753.81408	55
753.93734	65
754.06061	57
754.18388	60
754.30714	59
754.43041	48
754.55368	57
754.67695	59
754.80023	53
754.9235	55
755.04677	51
755.17005	47
755.29333	57
755.41661	56
755.53989	57
755.66317	54
755.78645	57
755.90974	51
756.03302	58
756.15631	51
756.2796	50
756.40289	54
756.52618	51
756.64947	62
756.77276	49
756.89606	56
757.01935	52
757.14265	53
757.26595	54
757.38925	53
757.51255	50
757.63585	49
757.75916	53
757.88246	54
758.00577	43
758.12907	49
758.25238	54
758.37569	54
758.499	48
758.62232	49
758.74563	55
758.86894	47
758.99226	58
759.11558	52
759.2389	46
759.36222	57
759.48554	52
759.60886	48
759.73219	59
759.85551	51
759.97884	58
760.10216	52
760.22549	51
760.34882	50
760.47215	59
760.59549	53
760.71882	59
760.84216	54
760.96549	59
761.08883	56
761.21217	47
761.33551	44
761.45885	56
761.5822	55
761.70554	44
761.82888	49
761.95223	55
762.07558	45
762.19893	46
762.32228	46
762.44563	41
762.56898	47
762.69234	43
762.81569	53
762.93905	46
763.06241	53
763.18577	51
763.30913	49
763.43249	56
763.55585	55
763.67922	45
763.80258	48
763.92595	45
764.04932	49
764.17268	46
764.29605	46
764.41943	46
764.5428	49
764.66617	47
764.78955	55
764.91293	55
765.0363	47
765.15968	51
765.28306	24
765.40644	54
765.52983	55
765.65321	56
765.7766	48
765.89998	42
766.02337	44
766.14676	50
766.27015	51
766.39354	48
766.51693	46
766.64033	49
766.76372	46
766.88712	54
767.01052	52
767.13392	50
767.25732	49
767.38072	42
767.50412	42
767.62752	40
767.75093	40
767.87434	43
767.99774	40
768.12115	45
768.24456	41
768.36797	43
768.49139	43
768.6148	38
768.73821	46
768.86163	43
768.98505	47
769.10847	47
769.23189	44
769.35531	46
769.47873	49
769.60215	40
769.72558	48
769.849	49
769.97243	46
770.09586	35
770.21929	43
770.34272	41
770.46615	42
770.58959	38
770.71302	43
770.83646	45
770.95989	43
771.08333	42
771.20677	44
771.33021	37
771.45365	37
771.57709	36
771.70054	41
771.82398	33
771.94743	39
772.07088	34
772.19433	38
772.31778	45
772.44123	49
772.56468	30
772.68814	38
772.81159	42
772.93505	35
773.0585	42
773.18196	40
773.30542	39
773.42888	40
773.55235	40
773.67581	36
773.79928	46
773.92274	42
774.04621	46
774.16968	42
774.29315	39
774.41662	36
774.54009	39
774.66356	37
774.78704	42
774.91051	36
775.03399	38
775.15747	36
775.28094	33
775.40443	37
775.52791	39
775.65139	36
775.77487	42
775.89836	42
776.02184	35
776.14533	38
776.26882	37
776.39231	39
776.5158	41
776.63929	34
776.76279	43
776.88628	38
777.00978	35
777.13327	38
777.25677	46
777.38027	38
777.50377	31
777.62727	41
777.75078	31
777.87428	37
777.99779	30
778.12129	31
778.2448	35
778.36831	35
778.49182	32
778.61533	30
778.73884	33
778.86236	36
778.98587	35
779.10939	36
779.2329	33
779.35642	29
779.47994	37
779.60346	31
779.72698	28
779.85051	28
779.97403	35
780.09756	39
780.22108	26
780.34461	33
780.46814	32
780.59167	38
780.7152	30
780.83873	27
780.96227	33
781.0858	32
781.20934	35
781.33287	32
781.45641	38
781.57995	28
781.70349	33
781.82703	35
781.95058	33
782.07412	37
782.19766	36
782.32121	33
782.44476	26
782.56831	32
782.69186	35
782.81541	34
782.93896	36
783.06251	31
783.18607	20
783.30962	30
783.43318	31
783.55674	37
783.6803	35
783.80386	33
783.92742	30
784.05098	36
784.17454	31
784.29811	31
784.42168	34
784.54524	30
784.66881	30
784.79238	32
784.91595	28
785.03952	29
785.1631	34
785.28667	34
785.41024	33
785.53382	32
785.6574	30
785.78098	27
785.90456	28
786.02814	31
786.15172	31
786.2753	37
786.39889	33
786.52247	30
786.64606	24
786.76965	31
786.89324	30
787.01683	38
787.14042	26
787.26401	33
787.3876	33
787.5112	29
787.63479	35
787.75839	33
787.88199	32
788.00559	28
788.12919	36
788.25279	30
788.37639	28
788.5	28
788.6236	27
788.74721	30
788.87081	29
788.99442	26
789.11803	32
789.24164	27
789.36525	31
789.48887	25
789.61248	32
789.73609	31
789.85971	28
789.98333	28
790.10695	28
790.23057	28
790.35419	34
790.47781	27
790.60143	21
790.72506	32
790.84868	23
790.97231	30
791.09593	27
791.21956	26
791.34319	33
791.46682	27
791.59045	32
791.71409	30
791.83772	31
791.96136	25
792.08499	28
792.20863	33
792.33227	25
792.45591	31
792.57955	33
792.70319	36
792.82683	28
792.95048	32
793.07412	22
793.19777	29
793.32142	22
793.44507	27
793.56872	27
793.69237	25
793.81602	26
793.93967	31
794.06333	27
794.18698	22
794.31064	32
794.4343	24
794.55795	18
794.68161	26
794.80527	24
794.92894	26
795.0526	22
795.17626	21
795.29993	21
795.42359	26
795.54726	26
795.67093	30
795.7946	26
795.91827	29
796.04194	29
796.16562	27
796.28929	36
796.41296	32
796.53664	31
796.66032	43
796.784	41
796.90768	43
797.03136	37
797.15504	52
797.27872	41
797.4024	45
797.52609	45
797.64978	49
797.77346	50
797.89715	48
798.02084	41
798.14453	45
798.26822	53
798.39191	55
798.51561	51
798.6393	43
798.763	44
798.8867	48
799.01039	38
799.13409	29
799.25779	33
799.38149	27
799.5052	27
799.6289	26
799.7526	27
799.87631	26
800.00002	24
800.12372	26
800.24743	31
800.37114	21
800.49485	24
800.61857	20
800.74228	19
800.86599	25
800.98971	24
801.11343	22
801.23714	27
801.36086	21
801.48458	22
801.6083	25
801.73202	23
801.85575	20
801.97947	21
802.10319	22
802.22692	21
802.35065	19
802.47438	22
802.59811	25
802.72184	24
802.84557	18
802.9693	22
803.09303	29
803.21677	17
803.3405	24
803.46424	21
803.58798	25
803.71172	21
803.83546	29
803.9592	21
804.08294	20
804.20668	19
804.33043	16
804.45417	20
804.57792	23
804.70166	25
804.82541	27
804.94916	21
805.07291	20
805.19666	25
805.32042	23
805.44417	17
805.56793	21
805.69168	25
805.81544	18
805.9392	22
806.06295	20
806.18671	23
806.31048	21
806.43424	26
806.558	22
806.68176	25
806.80553	23
806.9293	24
807.05306	22
807.17683	21
807.3006	19
807.42437	20
807.54814	21
807.67192	19
807.79569	19
807.91946	26
808.04324	23
808.16702	31
808.29079	21
808.41457	25
808.53835	22
808.66213	23
808.78592	23
808.9097	21
809.03348	21
809.15727	20
809.28105	22
809.40484	18
809.52863	20
809.65242	20
809.77621	22
809.9	19
810.02379	22
810.14758	14
810.27138	27
810.39517	19
810.51897	21
810.64277	20
810.76657	18
810.89037	17
811.01417	18
811.13797	16
811.26177	24
811.38557	17
811.50938	17
811.63318	17
811.75699	18
811.8808	18
812.00461	21
812.12842	19
812.25223	19
812.37604	21
812.49985	16
812.62367	20
812.74748	19
812.8713	22
812.99511	14
813.11893	14
813.24275	14
813.36657	15
813.49039	20
813.61421	16
813.73804	19
813.86186	15
813.98569	18
814.10951	15
814.23334	22
814.35717	18
814.481	20
814.60483	19
814.72866	23
814.85249	22
814.97632	21
815.10016	18
815.22399	13
815.34783	15
815.47166	20
815.5955	16
815.71934	20
815.84318	18
815.96702	19
816.09087	21
816.21471	18
816.33855	18
816.4624	17
816.58624	19
816.71009	13
816.83394	24
816.95779	17
817.08164	21
817.20549	15
817.32934	20
817.4532	20
817.57705	16
817.70091	14
817.82476	13
817.94862	11
818.07248	17
818.19634	15
818.3202	15
818.44406	13
818.56792	17
818.69178	15
818.81565	18
818.93951	14
819.06338	17
819.18725	12
819.31111	16
819.43498	15
819.55885	16
819.68272	12
819.8066	14
819.93047	15
820.05434	14
820.17822	16
820.30209	13
820.42597	16
820.54985	15
820.67373	17
820.79761	15
820.92149	13
821.04537	15
821.16925	13
821.29314	20
821.41702	12
821.54091	10
821.6648	12
821.78868	19
821.91257	10
822.03646	20
822.16035	18
822.28425	16
822.40814	16
822.53203	20
822.65593	14
822.77982	15
822.90372	26
823.02762	20
823.15151	18
823.27541	21
823.39931	20
823.52322	20
823.64712	18
823.77102	16
823.89493	18
824.01883	20
824.14274	22
824.26665	23
824.39055	23
824.51446	19
824.63837	24
824.76228	17
824.8862	20
825.01011	13
825.13402	17
825.25794	14
825.38185	17
825.50577	19
825.62969	16
825.75361	18
825.87753	11
826.00145	15
826.12537	11
826.24929	15
826.37322	16
826.49714	12
826.62107	12
826.74499	15
826.86892	12
826.99285	15
827.11678	15
827.24071	11
827.36464	18
827.48857	13
827.61251	15
827.73644	15
827.86037	17
827.98431	11
828.10825	15
828.23219	13
828.35612	14
828.48006	16
828.60401	17
828.72795	11
828.85189	14
828.97583	18
829.09978	20
829.22372	19
829.34767	21
829.47162	23
829.59557	17
829.71951	17
829.84347	22
829.96742	22
830.09137	17
830.21532	16
830.33928	14
830.46323	17
830.58719	15
830.71114	13
830.8351	19
830.95906	22
831.08302	14
831.20698	19
831.33094	17
831.4549	17
831.57887	17
831.70283	13
831.8268	13
831.95076	15
832.07473	15
832.1987	13
832.32267	15
832.44664	11
832.57061	14
832.69458	13
832.81855	14
832.94253	17
833.0665	17
833.19048	15
833.31445	13
833.43843	8
833.56241	18
833.68639	12
833.81037	13
833.93435	14
834.05833	13
834.18231	14
834.3063	16
834.43028	19
834.55427	22
834.67825	18
834.80224	19
834.92623	24
835.05022	26
835.17421	18
835.2982	17
835.42219	18
835.54618	19
835.67018	21
835.79417	16
835.91817	19
836.04216	15
836.16616	19
836.29016	15
836.41416	21
836.53816	25
836.66216	18
836.78616	30
836.91017	28
837.03417	42
837.15817	47
837.28218	43
837.40619	39
837.53019	42
837.6542	44
837.77821	42
837.90222	41
838.02623	44
838.15024	48
838.27426	40
838.39827	41
838.52229	46
838.6463	44
838.77032	47
838.89434	46
839.01835	37
839.14237	35
839.26639	41
839.39041	35
839.51444	25
839.63846	24
839.76248	15
839.88651	22
840.01053	17
840.13456	18
840.25859	12
840.38261	18
840.50664	16
840.63067	19
840.7547	10
840.87874	19
841.00277	14
841.1268	16
841.25084	14
841.37487	14
841.49891	15
841.62294	15
841.74698	9
841.87102	10
841.99506	13
842.1191	14
842.24314	13
842.36719	15
842.49123	7
842.61527	8
842.73932	7
842.86336	13
842.98741	10
843.11146	11
843.23551	12
843.35956	10
843.48361	14
843.60766	12
843.73171	12
843.85576	13
843.97982	10
844.10387	12
844.22793	4
844.35198	13
844.47604	14
844.6001	9
844.72416	15
844.84822	8
844.97228	11
845.09634	15
845.2204	9
845.34446	12
845.46853	8
845.59259	10
845.71666	12
845.84073	15
845.96479	15
846.08886	13
846.21293	18
846.337	12
846.46107	14
846.58515	8
846.70922	14
846.83329	15
846.95737	13
847.08144	12
847.20552	9
847.3296	10
847.45367	12
847.57775	13
847.70183	15
847.82591	13
847.95	14
848.07408	14
848.19816	20
848.32224	14
848.44633	14
848.57042	11
848.6945	14
848.81859	11
848.94268	13
849.06677	11
849.19086	14
849.31495	13
849.43904	11
849.56313	13
849.68723	17
849.81132	9
849.93542	11
850.05951	13
850.18361	14
850.30771	11
850.4318	10
850.5559	12
850.68	15
850.8041	13
850.92821	14
851.05231	15
851.17641	6
851.30052	17
851.42462	10
851.54873	8
851.67284	14
851.79694	9
851.92105	8
852.04516	9
852.16927	7
852.29338	12
852.41749	12
852.54161	12
852.66572	12
852.78984	12
852.91395	15
853.03807	7
853.16218	14
853.2863	10
853.41042	15
853.53454	10
853.65866	13
853.78278	9
853.9069	10
854.03103	11
854.15515	13
854.27927	13
854.4034	8
854.52753	10
854.65165	8
854.77578	8
854.89991	10
855.02404	12
855.14817	13
855.2723	12
855.39643	3
855.52056	14
855.6447	7
855.76883	8
855.89297	13
856.0171	15
856.14124	7
856.26538	8
856.38952	14
856.51366	9
856.6378	11
856.76194	6
856.88608	8
857.01022	11
857.13436	8
857.25851	10
857.38265	7
857.5068	4
857.63094	10
857.75509	10
857.87924	7
858.00339	12
858.12754	8
858.25169	9
858.37584	13
858.49999	12
858.62415	10
858.7483	6
858.87246	13
858.99661	12
859.12077	8
859.24492	8
859.36908	8
859.49324	12
859.6174	10
859.74156	11
859.86572	8
859.98988	13
860.11405	9
860.23821	10
860.36237	11
860.48654	5
860.6107	8
860.73487	6
860.85904	8
860.98321	6
861.10738	11
861.23155	12
861.35572	9
861.47989	9
861.60406	12
861.72823	13
861.85241	6
861.97658	8
862.10076	11
862.22493	10
862.34911	12
862.47329	9
862.59747	11
862.72165	9
862.84583	9
862.97001	17
863.09419	5
863.21837	12
863.34256	9
863.46674	15
