"hBN106_Slow - RawData"
"Wavelength nm.","T%"
190.00,13.56954
191.00,11.15751
192.00,10.34067
193.00,9.36711
194.00,8.05907
195.00,7.86679
196.00,7.40691
197.00,7.26294
198.00,6.97851
199.00,6.63451
200.00,6.49291
201.00,6.19208
202.00,5.75637
203.00,5.43551
204.00,5.25516
205.00,4.90524
206.00,4.74533
207.00,4.65709
208.00,4.39365
209.00,4.19357
210.00,4.14725
211.00,4.24871
212.00,4.58448
213.00,5.55973
214.00,6.99696
215.00,9.22596
216.00,12.03132
217.00,15.05724
218.00,18.18081
219.00,21.18932
220.00,23.73950
221.00,26.13840
222.00,27.87712
223.00,29.57698
224.00,30.74386
225.00,32.05214
226.00,32.79786
227.00,33.59247
228.00,34.16724
229.00,34.86756
230.00,35.50617
231.00,36.16428
232.00,36.68821
233.00,37.33977
234.00,37.94841
235.00,38.49655
236.00,39.13141
237.00,39.93957
238.00,40.45320
239.00,40.91640
240.00,41.45233
241.00,42.12886
242.00,42.63233
243.00,43.25176
244.00,44.08444
245.00,44.65733
246.00,45.12287
247.00,45.87817
248.00,46.25557
249.00,47.04681
250.00,47.57566
251.00,48.03804
252.00,48.56609
253.00,49.15213
254.00,49.53032
255.00,50.19172
256.00,50.72497
257.00,51.08777
258.00,51.74508
259.00,51.94312
260.00,52.22493
261.00,52.60796
262.00,53.22757
263.00,53.45188
264.00,53.78154
265.00,54.08678
266.00,54.28363
267.00,54.73534
268.00,55.03082
269.00,55.27730
270.00,55.58770
271.00,55.97744
272.00,56.18981
273.00,56.31142
274.00,56.72277
275.00,56.85109
276.00,57.17133
277.00,57.49607
278.00,57.47315
279.00,57.78807
280.00,57.84516
281.00,58.19743
282.00,58.29256
283.00,58.41709
284.00,58.53698
285.00,58.75658
286.00,58.86355
287.00,59.09917
288.00,59.22636
289.00,59.43170
290.00,59.52125
291.00,59.81555
292.00,59.75499
293.00,59.98985
294.00,60.08971
295.00,60.10365
296.00,60.24529
297.00,60.30644
298.00,60.36491
299.00,60.68370
300.00,60.56112
301.00,60.71797
302.00,60.88034
303.00,60.93202
304.00,61.09236
305.00,61.30744
306.00,61.17527
307.00,61.32141
308.00,61.21654
309.00,61.58867
310.00,61.67159
311.00,61.57666
312.00,61.59345
313.00,61.89071
314.00,61.65812
315.00,61.65474
316.00,61.78974
317.00,62.05131
318.00,61.96406
319.00,61.98115
320.00,62.28810
321.00,62.32628
322.00,62.09659
323.00,62.24079
324.00,62.56976
325.00,62.61082
326.00,62.32986
327.00,62.57548
328.00,62.51889
329.00,62.39945
330.00,62.61529
331.00,62.66695
332.00,62.59958
333.00,62.65087
334.00,62.69569
335.00,62.72704
336.00,62.83594
337.00,62.71979
338.00,62.84787
339.00,62.87776
340.00,62.87138
341.00,62.94271
342.00,62.82872
343.00,63.03064
344.00,62.93308
345.00,62.91118
346.00,63.08551
347.00,62.91221
348.00,63.08891
349.00,63.09004
350.00,63.05937
351.00,63.18244
352.00,63.14794
353.00,62.97078
354.00,63.12855
355.00,63.13592
356.00,63.23993
357.00,63.28226
358.00,63.14864
359.00,63.18257
360.00,63.20664
361.00,63.23206
362.00,63.34861
363.00,63.36091
364.00,63.14578
365.00,63.32821
366.00,63.30825
367.00,63.28656
368.00,63.33455
369.00,63.40451
370.00,63.45137
371.00,63.28821
372.00,63.25078
373.00,63.36650
374.00,63.38456
375.00,63.42140
376.00,63.48547
377.00,63.46039
378.00,63.47632
379.00,63.59798
380.00,63.54516
381.00,63.47486
382.00,63.57164
383.00,63.49831
384.00,63.54994
385.00,63.52341
386.00,63.57290
387.00,63.64756
388.00,63.56516
389.00,63.51061
390.00,63.66222
391.00,63.65387
392.00,63.61717
393.00,63.61989
394.00,63.67058
395.00,63.64528
396.00,63.67092
397.00,63.71715
398.00,63.59216
399.00,63.72384
400.00,63.68974
401.00,63.76068
402.00,63.70697
403.00,63.71925
404.00,63.65169
405.00,63.74395
406.00,63.84971
407.00,63.69920
408.00,63.78075
409.00,63.82338
410.00,63.78601
411.00,63.80488
412.00,63.80660
413.00,63.81335
414.00,63.82818
415.00,63.80138
416.00,63.95599
417.00,63.91661
418.00,63.90660
419.00,63.80851
420.00,63.89279
421.00,63.92879
422.00,63.91619
423.00,63.90880
424.00,63.82045
425.00,63.90346
426.00,63.91451
427.00,64.00630
428.00,63.95718
429.00,63.90383
430.00,63.91675
431.00,63.92871
432.00,64.05242
433.00,63.97040
434.00,63.99957
435.00,64.02048
436.00,64.03549
437.00,64.10506
438.00,64.00359
439.00,64.10134
440.00,64.02890
441.00,64.07703
442.00,64.08460
443.00,64.12206
444.00,64.07062
445.00,64.12467
446.00,64.12057
447.00,64.07548
448.00,64.10925
449.00,64.13184
450.00,64.15797
451.00,64.17283
452.00,64.17410
453.00,64.16782
454.00,64.17278
455.00,64.23239
456.00,64.12200
457.00,64.23050
458.00,64.19639
459.00,64.21677
460.00,64.21087
461.00,64.22646
462.00,64.21816
463.00,64.24647
464.00,64.24340
465.00,64.32803
466.00,64.24397
467.00,64.32655
468.00,64.30833
469.00,64.29272
470.00,64.32866
471.00,64.33985
472.00,64.38318
473.00,64.36088
474.00,64.36293
475.00,64.33358
476.00,64.39632
477.00,64.41193
478.00,64.40766
479.00,64.35836
480.00,64.37475
481.00,64.41429
482.00,64.48799
483.00,64.44002
484.00,64.43937
485.00,64.46193
486.00,64.45550
487.00,64.48872
488.00,64.47464
489.00,64.55880
490.00,64.52651
491.00,64.50718
492.00,64.56231
493.00,64.53526
494.00,64.57298
495.00,64.56615
496.00,64.57492
497.00,64.57579
498.00,64.61809
499.00,64.59386
500.00,64.65147
501.00,64.57500
502.00,64.63440
503.00,64.71306
504.00,64.69510
505.00,64.65042
506.00,64.69277
507.00,64.69665
508.00,64.75138
509.00,64.77333
510.00,64.78596
511.00,64.80850
512.00,64.78547
513.00,64.80893
514.00,64.82143
515.00,64.79430
516.00,64.82679
517.00,64.81051
518.00,64.84673
519.00,64.86719
520.00,64.86727
521.00,64.87098
522.00,64.88545
523.00,64.93824
524.00,64.92415
525.00,64.93345
526.00,64.98705
527.00,64.96378
528.00,64.99348
529.00,64.94026
530.00,64.99954
531.00,64.96142
532.00,65.04019
533.00,65.05028
534.00,65.03523
535.00,65.05543
536.00,65.05855
537.00,65.05058
538.00,65.09051
539.00,65.15020
540.00,65.11165
541.00,65.09762
542.00,65.13370
543.00,65.16041
544.00,65.15468
545.00,65.21981
546.00,65.18213
547.00,65.19803
548.00,65.20765
549.00,65.26365
550.00,65.23290
551.00,65.21246
552.00,65.32138
553.00,65.32591
554.00,65.28871
555.00,65.29564
556.00,65.26185
557.00,65.29626
558.00,65.36548
559.00,65.36145
560.00,65.38112
561.00,65.39925
562.00,65.40203
563.00,65.41885
564.00,65.39984
565.00,65.42798
566.00,65.44864
567.00,65.42427
568.00,65.50663
569.00,65.49224
570.00,65.51340
571.00,65.55312
572.00,65.48723
573.00,65.50701
574.00,65.51637
575.00,65.55942
576.00,65.56414
577.00,65.54061
578.00,65.57724
579.00,65.62644
580.00,65.63938
581.00,65.62004
582.00,65.66674
583.00,65.64488
584.00,65.65813
585.00,65.69268
586.00,65.70547
587.00,65.71520
588.00,65.71468
589.00,65.76298
590.00,65.72433
591.00,65.77386
592.00,65.76121
593.00,65.79192
594.00,65.75782
595.00,65.81140
596.00,65.79019
597.00,65.85943
598.00,65.88730
599.00,65.88117
600.00,65.84623
601.00,65.88889
602.00,65.94603
603.00,65.92947
604.00,65.91415
605.00,65.89015
606.00,65.90554
607.00,65.96516
608.00,66.01103
609.00,65.94441
610.00,65.96125
611.00,66.03340
612.00,66.00649
613.00,66.04077
614.00,66.00957
615.00,66.08309
616.00,66.07555
617.00,66.16265
618.00,66.12507
619.00,66.09418
620.00,66.15915
621.00,66.16056
622.00,66.26687
623.00,66.19006
624.00,66.16120
625.00,66.23350
626.00,66.19804
627.00,66.23513
628.00,66.25412
629.00,66.22301
630.00,66.35879
631.00,66.31515
632.00,66.27499
633.00,66.41185
634.00,66.34505
635.00,66.35973
636.00,66.34246
637.00,66.42735
638.00,66.38976
639.00,66.41518
640.00,66.40883
641.00,66.38902
642.00,66.51363
643.00,66.44816
644.00,66.47311
645.00,66.44235
646.00,66.52362
647.00,66.55886
648.00,66.51960
649.00,66.52125
650.00,66.58657
651.00,66.57075
652.00,66.56098
653.00,66.62918
654.00,66.62872
655.00,66.66598
656.00,66.66413
657.00,66.67441
658.00,66.73518
659.00,66.71949
660.00,66.67246
661.00,66.75559
662.00,66.74541
663.00,66.72991
664.00,66.74877
665.00,66.79560
666.00,66.78038
667.00,66.85252
668.00,66.77133
669.00,66.85900
670.00,66.88873
671.00,66.80616
672.00,66.90103
673.00,66.89917
674.00,66.88416
675.00,67.01079
676.00,66.84746
677.00,66.98641
678.00,66.97239
679.00,66.97853
680.00,67.05745
681.00,66.95642
682.00,67.01322
683.00,67.09330
684.00,67.13489
685.00,67.07107
686.00,67.11498
687.00,67.11794
688.00,67.10756
689.00,67.08491
690.00,67.04966
691.00,67.14350
692.00,67.14767
693.00,67.18835
694.00,67.27345
695.00,67.17102
696.00,67.12974
697.00,67.17448
698.00,67.18854
699.00,67.25367
700.00,67.26940
