"Substrate_Slow - RawData"
"Wavelength nm.","T%"
190.00,59.76698
191.00,58.22235
192.00,58.61264
193.00,55.40789
194.00,54.14849
195.00,53.29878
196.00,53.55545
197.00,53.54281
198.00,53.51014
199.00,53.48275
200.00,55.24002
201.00,55.01366
202.00,54.77348
203.00,55.59084
204.00,56.99520
205.00,56.52692
206.00,57.28165
207.00,56.95979
208.00,57.45535
209.00,57.23235
210.00,57.34733
211.00,57.61023
212.00,57.65653
213.00,58.04117
214.00,57.53888
215.00,57.85582
216.00,57.54902
217.00,57.25859
218.00,57.16017
219.00,57.32804
220.00,56.80032
221.00,56.96427
222.00,57.21901
223.00,57.36440
224.00,57.28558
225.00,57.51671
226.00,57.51880
227.00,57.65998
228.00,57.58839
229.00,57.92035
230.00,57.89646
231.00,57.98967
232.00,58.03124
233.00,58.28759
234.00,58.49662
235.00,58.58873
236.00,58.66833
237.00,59.21896
238.00,59.36982
239.00,59.29841
240.00,59.61275
241.00,60.11543
242.00,60.25931
243.00,60.39876
244.00,60.75779
245.00,61.03325
246.00,61.00380
247.00,61.52239
248.00,61.46647
249.00,61.78315
250.00,61.79368
251.00,62.02005
252.00,62.21551
253.00,62.08203
254.00,62.48193
255.00,62.63849
256.00,62.63893
257.00,62.56354
258.00,62.79728
259.00,62.80804
260.00,62.85838
261.00,62.95378
262.00,63.20732
263.00,62.86928
264.00,63.12686
265.00,63.09276
266.00,62.99851
267.00,63.05596
268.00,63.19984
269.00,63.10509
270.00,63.20814
271.00,63.27250
272.00,63.31258
273.00,63.42319
274.00,63.47486
275.00,63.26898
276.00,63.36222
277.00,63.35359
278.00,63.33408
279.00,63.62163
280.00,63.34867
281.00,63.59885
282.00,63.64512
283.00,63.79737
284.00,63.78024
285.00,63.99809
286.00,63.90607
287.00,63.99935
288.00,64.15268
289.00,64.19861
290.00,64.57031
291.00,64.49971
292.00,64.62652
293.00,64.69590
294.00,64.70325
295.00,64.81117
296.00,64.67338
297.00,64.88039
298.00,65.10216
299.00,65.00188
300.00,65.05718
301.00,65.10423
302.00,65.13153
303.00,65.28546
304.00,65.36389
305.00,65.46919
306.00,65.25914
307.00,65.61955
308.00,65.36971
309.00,65.59640
310.00,65.63192
311.00,65.52910
312.00,65.47931
313.00,65.79784
314.00,65.81336
315.00,65.72040
316.00,65.74615
317.00,65.79691
318.00,65.70421
319.00,65.80053
320.00,66.08528
321.00,66.10054
322.00,65.85655
323.00,66.09238
324.00,66.12986
325.00,66.29491
326.00,66.00756
327.00,66.20416
328.00,66.17588
329.00,66.05219
330.00,66.14990
331.00,66.19046
332.00,66.20615
333.00,66.15393
334.00,66.30991
335.00,66.40627
336.00,66.23923
337.00,66.29387
338.00,66.38416
339.00,66.34232
340.00,66.34706
341.00,66.55971
342.00,66.36207
343.00,66.47119
344.00,66.62931
345.00,66.56883
346.00,66.54475
347.00,66.71072
348.00,66.70883
349.00,66.70637
350.00,66.72347
351.00,66.74483
352.00,66.75710
353.00,66.72353
354.00,66.69252
355.00,66.74955
356.00,66.85417
357.00,66.95371
358.00,66.88094
359.00,66.88729
360.00,66.93009
361.00,67.00526
362.00,67.02350
363.00,66.93837
364.00,66.82804
365.00,67.01662
366.00,66.78723
367.00,66.98712
368.00,66.96693
369.00,67.02890
370.00,67.10092
371.00,66.91442
372.00,67.01017
373.00,67.07618
374.00,67.13766
375.00,67.07712
376.00,67.09008
377.00,67.20945
378.00,67.15930
379.00,67.27573
380.00,67.22575
381.00,67.20112
382.00,67.35346
383.00,67.09867
384.00,67.18204
385.00,67.23420
386.00,67.23036
387.00,67.23950
388.00,67.27838
389.00,67.26050
390.00,67.40290
391.00,67.40353
392.00,67.34028
393.00,67.38864
394.00,67.37615
395.00,67.39216
396.00,67.37084
397.00,67.46044
398.00,67.39949
399.00,67.48365
400.00,67.46309
401.00,67.51834
402.00,67.55316
403.00,67.48013
404.00,67.42371
405.00,67.56186
406.00,67.62878
407.00,67.55117
408.00,67.61343
409.00,67.61480
410.00,67.59943
411.00,67.67263
412.00,67.63319
413.00,67.71777
414.00,67.72423
415.00,67.64145
416.00,67.77691
417.00,67.72454
418.00,67.76823
419.00,67.70251
420.00,67.72541
421.00,67.84813
422.00,67.76273
423.00,67.80813
424.00,67.80316
425.00,67.81427
426.00,67.83488
427.00,67.92268
428.00,67.90888
429.00,67.86541
430.00,67.77825
431.00,67.89891
432.00,67.90808
433.00,67.93268
434.00,67.93600
435.00,67.92650
436.00,67.95053
437.00,67.95459
438.00,67.94876
439.00,68.01009
440.00,68.01525
441.00,67.99137
442.00,68.03579
443.00,68.05328
444.00,68.02708
445.00,68.08134
446.00,68.10492
447.00,68.15341
448.00,68.06732
449.00,68.15922
450.00,68.16106
451.00,68.20832
452.00,68.18065
453.00,68.18112
454.00,68.15050
455.00,68.21162
456.00,68.17667
457.00,68.22449
458.00,68.21878
459.00,68.21696
460.00,68.23128
461.00,68.27953
462.00,68.20785
463.00,68.28978
464.00,68.25420
465.00,68.32070
466.00,68.28259
467.00,68.32191
468.00,68.30377
469.00,68.27739
470.00,68.33362
471.00,68.34332
472.00,68.41618
473.00,68.38826
474.00,68.39433
475.00,68.36730
476.00,68.39749
477.00,68.44097
478.00,68.44292
479.00,68.40607
480.00,68.41853
481.00,68.44694
482.00,68.49554
483.00,68.47253
484.00,68.49293
485.00,68.51687
486.00,68.50625
487.00,68.52509
488.00,68.52850
489.00,68.58097
490.00,68.53175
491.00,68.55880
492.00,68.61458
493.00,68.56846
494.00,68.58857
495.00,68.59173
496.00,68.61500
497.00,68.57851
498.00,68.67100
499.00,68.60668
500.00,68.65439
501.00,68.60674
502.00,68.67736
503.00,68.72532
504.00,68.71972
505.00,68.67594
506.00,68.69568
507.00,68.73803
508.00,68.77882
509.00,68.72976
510.00,68.76814
511.00,68.80865
512.00,68.82103
513.00,68.83159
514.00,68.85224
515.00,68.79956
516.00,68.80592
517.00,68.78832
518.00,68.81177
519.00,68.89902
520.00,68.83838
521.00,68.89666
522.00,68.90025
523.00,68.85101
524.00,68.88731
525.00,68.94218
526.00,68.95040
527.00,68.98084
528.00,68.93908
529.00,68.95660
530.00,68.96122
531.00,68.94694
532.00,69.03720
533.00,68.99431
534.00,69.05321
535.00,69.02423
536.00,69.05872
537.00,69.04900
538.00,69.11188
539.00,69.09422
540.00,69.07638
541.00,69.06279
542.00,69.08928
543.00,69.10641
544.00,69.08728
545.00,69.22569
546.00,69.12942
547.00,69.19762
548.00,69.15275
549.00,69.19276
550.00,69.22169
551.00,69.20847
552.00,69.24064
553.00,69.28969
554.00,69.22009
555.00,69.24603
556.00,69.25541
557.00,69.28718
558.00,69.27302
559.00,69.28534
560.00,69.31815
561.00,69.36589
562.00,69.31905
563.00,69.35043
564.00,69.29402
565.00,69.35994
566.00,69.37537
567.00,69.37054
568.00,69.40089
569.00,69.37122
570.00,69.41081
571.00,69.37910
572.00,69.41608
573.00,69.39991
574.00,69.45473
575.00,69.44534
576.00,69.44525
577.00,69.43515
578.00,69.47575
579.00,69.46932
580.00,69.50899
581.00,69.48209
582.00,69.54122
583.00,69.48283
584.00,69.56046
585.00,69.53892
586.00,69.53750
587.00,69.56908
588.00,69.58784
589.00,69.56131
590.00,69.56964
591.00,69.59787
592.00,69.59038
593.00,69.59522
594.00,69.65561
595.00,69.63736
596.00,69.63496
597.00,69.69766
598.00,69.69981
599.00,69.71228
600.00,69.66572
601.00,69.70504
602.00,69.72054
603.00,69.73160
604.00,69.72153
605.00,69.78704
606.00,69.74320
607.00,69.78736
608.00,69.82148
609.00,69.76851
610.00,69.80669
611.00,69.80234
612.00,69.83485
613.00,69.83126
614.00,69.86297
615.00,69.82631
616.00,69.88229
617.00,69.94995
618.00,69.87405
619.00,69.87025
620.00,69.91558
621.00,69.93290
622.00,69.94364
623.00,69.91068
624.00,69.92702
625.00,70.00111
626.00,69.94416
627.00,69.99527
628.00,69.98405
629.00,70.01352
630.00,70.05869
631.00,69.99191
632.00,70.02198
633.00,70.13057
634.00,70.09919
635.00,70.09292
636.00,70.09103
637.00,70.19737
638.00,70.12451
639.00,70.10620
640.00,70.14432
641.00,70.14728
642.00,70.21797
643.00,70.17387
644.00,70.21597
645.00,70.13201
646.00,70.17760
647.00,70.20900
648.00,70.19530
649.00,70.23062
650.00,70.24627
651.00,70.21027
652.00,70.24094
653.00,70.31158
654.00,70.33149
655.00,70.32394
656.00,70.36207
657.00,70.34720
658.00,70.31220
659.00,70.31518
660.00,70.34624
661.00,70.43173
662.00,70.39666
663.00,70.38165
664.00,70.37175
665.00,70.41696
666.00,70.45404
667.00,70.48293
668.00,70.39849
669.00,70.49117
670.00,70.49983
671.00,70.47052
672.00,70.50986
673.00,70.53059
674.00,70.55504
675.00,70.53744
676.00,70.52808
677.00,70.57057
678.00,70.60790
679.00,70.57751
680.00,70.56696
681.00,70.61421
682.00,70.63220
683.00,70.66303
684.00,70.74341
685.00,70.65539
686.00,70.62349
687.00,70.64846
688.00,70.72265
689.00,70.64943
690.00,70.72170
691.00,70.77220
692.00,70.65662
693.00,70.84590
694.00,70.76061
695.00,70.75613
696.00,70.65580
697.00,70.76172
698.00,70.71674
699.00,70.77486
700.00,70.80974
