836.60131	36
836.72507	32
836.84884	33
836.9726	34
837.09637	35
837.22014	34
837.34391	39
837.46768	31
837.59145	29
837.71522	34
837.839	29
837.96278	26
838.08655	14
838.21033	16
838.33411	10
838.45789	13
838.58168	12
838.70546	11
838.82925	13
838.95303	13
839.07682	9
839.20061	11
839.3244	10
839.44819	9
839.57198	11
839.69578	5
839.81957	8
839.94337	13
840.06717	9
840.19097	9
840.31477	11
840.43857	9
840.56237	12
840.68618	9
840.80999	9
840.93379	8
841.0576	12
841.18141	7
841.30522	8
841.42903	8
841.55285	8
841.67666	1
841.80048	5
841.92429	6
842.04811	7
842.17193	8
842.29575	4
842.41958	9
842.5434	8
842.66722	4
842.79105	9
842.91488	2
843.03871	10
843.16254	5
843.28637	5
843.4102	0
843.53403	5
843.65787	6
843.7817	9
843.90554	5
844.02938	6
844.15322	6
844.27706	8
844.4009	9
844.52475	13
844.64859	8
844.77244	8
844.89629	11
845.02013	7
845.14398	13
845.26784	10
845.39169	9
845.51554	6
845.6394	7
845.76325	5
845.88711	12
846.01097	4
846.13483	9
846.25869	7
846.38255	8
846.50642	7
846.63028	7
846.75415	6
846.87802	11
847.00188	10
847.12575	11
847.24963	6
847.3735	9
847.49737	0
847.62125	3
847.74512	8
847.869	10
847.99288	6
848.11676	7
848.24064	13
848.36452	10
848.48841	5
848.61229	7
848.73618	11
848.86006	9
848.98395	7
849.10784	10
849.23173	8
849.35562	6
849.47952	11
849.60341	6
849.72731	7
849.85121	6
849.9751	7
850.099	5
850.2229	11
850.34681	6
850.47071	3
850.59461	2
850.71852	6
850.84243	8
850.96634	6
851.09025	8
851.21416	5
851.33807	7
851.46198	5
851.5859	2
851.70981	3
851.83373	7
851.95765	4
852.08156	5
852.20549	8
852.32941	3
852.45333	7
852.57725	8
852.70118	5
852.82511	4
852.94903	3
853.07296	2
853.19689	6
853.32082	4
853.44476	4
853.56869	4
853.69263	2
853.81656	4
853.9405	4
854.06444	3
854.18838	7
854.31232	3
854.43626	4
854.5602	5
854.68415	5
854.8081	3
854.93204	8
855.05599	6
855.17994	6
855.30389	4
855.42784	5
855.5518	2
855.67575	7
855.79971	2
855.92366	-1
856.04762	6
856.17158	7
856.29554	1
856.4195	8
856.54346	12
856.66743	7
856.79139	6
856.91536	4
857.03933	8
857.1633	9
857.28727	5
857.41124	3
857.53521	3
857.65918	6
857.78316	6
857.90713	6
858.03111	9
858.15509	3
858.27907	6
858.40305	5
858.52703	10
858.65102	6
858.775	4
858.89898	7
859.02297	3
859.14696	10
859.27095	6
859.39494	7
859.51893	4
859.64292	6
859.76692	8
859.89091	6
860.01491	5
860.1389	6
860.2629	5
860.3869	3
860.5109	2
860.63491	3
860.75891	10
860.88291	8
861.00692	6
861.13093	3
861.25493	3
861.37894	6
861.50295	9
861.62697	9
861.75098	2
861.87499	5
861.99901	2
862.12302	6
862.24704	4
862.37106	6
862.49508	8
862.6191	3
862.74312	9
862.86714	2
862.99117	4
863.11519	7
863.23922	4
863.36325	5
863.48728	4
863.61131	5
863.73534	3
863.85937	10
863.98341	2
864.10744	2
864.23148	7
864.35551	8
864.47955	3
864.60359	3
864.72763	2
864.85167	6
864.97572	6
865.09976	3
865.22381	3
865.34785	3
865.4719	6
865.59595	6
865.72	2
865.84405	1
865.9681	6
866.09216	5
866.21621	3
866.34027	5
866.46432	-1
866.58838	5
866.71244	6
866.8365	8
866.96056	8
867.08463	7
867.20869	6
867.33276	1
867.45682	5
867.58089	2
867.70496	3
867.82903	3
867.9531	4
868.07717	3
868.20124	1
868.32532	9
868.44939	6
868.57347	6
868.69755	10
868.82162	1
868.9457	6
869.06979	4
869.19387	3
869.31795	4
869.44203	2
869.56612	4
869.69021	4
869.81429	3
869.93838	1
870.06247	1
870.18657	4
870.31066	1
870.43475	8
870.55885	4
870.68294	2
870.80704	4
870.93114	3
871.05524	3
871.17934	8
871.30344	6
871.42754	9
871.55164	3
871.67575	3
871.79985	1
871.92396	5
872.04807	8
872.17218	4
872.29629	5
872.4204	10
872.54451	4
872.66863	2
872.79274	7
872.91686	0
873.04098	5
873.16509	5
873.28921	2
873.41333	7
873.53746	5
873.66158	3
873.7857	5
873.90983	4
874.03395	4
874.15808	4
874.28221	6
874.40634	5
874.53047	1
874.6546	2
874.77874	7
874.90287	4
875.027	7
875.15114	4
875.27528	2
875.39942	1
875.52356	7
875.6477	3
875.77184	3
875.89598	4
876.02013	4
876.14427	4
876.26842	4
876.39256	8
876.51671	3
876.64086	5
876.76501	3
876.88916	8
877.01332	4
877.13747	3
877.26163	3
877.38578	4
877.50994	2
877.6341	8
877.75826	0
877.88242	6
878.00658	7
878.13074	4
878.25491	0
878.37907	6
878.50324	5
878.62741	5
878.75157	4
878.87574	6
878.99991	6
879.12408	4
879.24826	7
879.37243	4
879.49661	6
879.62078	10
879.74496	5
879.86914	8
879.99332	2
880.1175	6
880.24168	7
880.36586	4
880.49004	-1
880.61423	4
880.73841	4
880.8626	0
880.98679	0
881.11098	3
881.23517	7
881.35936	4
881.48355	12
881.60774	3
881.73194	7
881.85613	7
881.98033	4
882.10453	2
882.22873	7
882.35293	0
882.47713	8
882.60133	6
882.72553	4
882.84974	6
882.97394	5
883.09815	6
883.22236	6
883.34657	3
883.47077	3
883.59499	1
883.7192	1
883.84341	1
883.96762	5
884.09184	3
884.21605	4
884.34027	2
884.46449	7
884.58871	5
884.71293	2
884.83715	2
884.96137	-1
885.0856	6
885.20982	6
885.33405	3
885.45827	3
885.5825	4
885.70673	4
885.83096	3
885.95519	-2
886.07942	3
886.20365	4
886.32789	2
886.45212	4
886.57636	0
886.7006	5
886.82484	4
886.94907	7
887.07332	5
887.19756	7
887.3218	5
887.44604	8
887.57029	5
887.69453	2
887.81878	2
887.94303	8
888.06728	1
888.19153	1
888.31578	2
888.44003	4
888.56428	0
888.68854	9
888.81279	2
888.93705	2
889.06131	1
889.18556	5
889.30982	3
889.43408	5
889.55834	3
889.68261	0
889.80687	4
889.93114	5
890.0554	5
890.17967	3
890.30394	4
890.4282	4
890.55247	6
890.67675	6
890.80102	7
890.92529	6
891.04956	4
891.17384	4
891.29811	3
891.42239	3
891.54667	2
891.67095	0
891.79523	2
891.91951	1
892.04379	4
892.16808	4
892.29236	1
892.41665	7
892.54093	3
892.66522	1
892.78951	7
892.9138	1
893.03809	0
893.16238	2
893.28667	1
893.41097	7
893.53526	4
893.65956	8
893.78385	1
893.90815	-2
894.03245	4
894.15675	5
894.28105	6
894.40535	4
894.52965	4
894.65396	5
894.77826	1
894.90257	4
895.02688	1
895.15118	3
895.27549	10
895.3998	3
895.52411	3
895.64843	3
895.77274	5
895.89705	11
896.02137	6
896.14568	3
896.27	10
896.39432	10
896.51864	6
896.64296	3
896.76728	9
896.8916	5
897.01593	2
897.14025	8
897.26457	6
897.3889	3
897.51323	9
897.63756	10
897.76189	3
897.88622	7
898.01055	8
898.13488	6
898.25921	8
898.38355	6
898.50788	4
898.63222	0
898.75656	3
898.88089	5
899.00523	5
899.12957	-2
899.25391	-1
899.37826	1
899.5026	4
899.62694	6
899.75129	3
899.87564	3
899.99998	7
900.12433	5
900.24868	5
900.37303	3
900.49738	4
900.62173	3
900.74609	1
900.87044	1
900.9948	5
901.11915	9
901.24351	10
901.36787	4
901.49223	14
901.61659	7
901.74095	2
901.86531	6
901.98967	2
902.11404	9
902.2384	11
902.36277	9
902.48714	9
902.61151	11
902.73587	10
902.86024	9
902.98462	5
903.10899	5
903.23336	6
903.35773	7
903.48211	7
903.60649	8
903.73086	4
903.85524	7
903.97962	6
904.104	9
904.22838	1
904.35276	4
904.47714	-2
904.60153	3
904.72591	4
904.8503	4
904.97469	7
905.09907	8
905.22346	3
905.34785	3
905.47224	5
905.59663	1
905.72103	7
905.84542	-1
905.96981	3
906.09421	1
906.21861	2
906.343	6
906.4674	2
906.5918	3
906.7162	1
906.8406	5
906.96501	3
907.08941	6
907.21381	1
907.33822	3
907.46262	5
907.58703	3
907.71144	0
907.83585	-2
907.96026	2
908.08467	2
908.20908	3
908.33349	6
908.45791	3
908.58232	11
908.70674	1
908.83115	7
908.95557	3
909.07999	4
909.20441	2
909.32883	7
909.45325	5
909.57767	5
909.7021	2
909.82652	7
909.95095	4
910.07537	3
910.1998	7
910.32423	3
910.44866	3
910.57309	5
910.69752	0
910.82195	0
910.94638	6
911.07082	6
911.19525	6
911.31969	9
911.44412	8
911.56856	3
911.693	2
911.81744	5
911.94188	10
912.06632	4
912.19076	4
912.31521	-1
912.43965	3
912.56409	1
912.68854	4
912.81299	2
912.93744	3
913.06188	7
913.18633	0
913.31078	2
913.43524	2
913.55969	4
913.68414	2
913.8086	-3
913.93305	6
914.05751	3
914.18197	4
914.30642	4
914.43088	5
914.55534	4
914.6798	5
914.80427	3
914.92873	6
915.05319	5
915.17766	2
915.30212	0
915.42659	-2
915.55106	0
915.67553	1
915.79999	3
915.92446	1
916.04894	2
916.17341	3
916.29788	4
916.42235	7
916.54683	1
916.67131	8
916.79578	4
916.92026	-3
917.04474	6
917.16922	-1
917.2937	6
917.41818	7
917.54266	2
917.66714	3
917.79163	4
917.91611	2
918.0406	6
918.16509	2
918.28957	2
918.41406	-1
918.53855	1
918.66304	4
918.78753	-4
918.91203	2
919.03652	5
919.16101	3
919.28551	2
919.41	0
919.5345	0
919.659	8
919.7835	3
919.908	-3
920.0325	-1
920.157	1
920.2815	3
920.406	9
920.53051	0
920.65501	1
920.77952	3
920.90402	5
921.02853	1
921.15304	7
921.27755	-2
921.40206	8
921.52657	5
921.65108	5
921.7756	2
921.90011	2
922.02462	5
922.14914	6
922.27366	1
922.39817	2
922.52269	2
922.64721	2
922.77173	1
922.89625	5
923.02077	0
923.1453	0
923.26982	3
923.39435	4
923.51887	-1
923.6434	2
923.76792	1
923.89245	3
924.01698	3
924.14151	3
924.26604	7
924.39057	5
924.51511	9
924.63964	3
924.76417	-5
924.88871	1
925.01325	6
925.13778	3
925.26232	4
925.38686	2
925.5114	-2
925.63594	0
925.76048	4
925.88502	2
926.00957	4
926.13411	1
926.25865	4
926.3832	4
926.50775	1
926.63229	3
926.75684	1
926.88139	2
927.00594	-2
927.13049	7
927.25504	3
927.3796	3
927.50415	2
927.62871	5
927.75326	5
927.87782	5
928.00237	0
928.12693	1
928.25149	3
928.37605	4
928.50061	-1
928.62517	6
928.74973	-2
928.8743	6
928.99886	3
929.12343	2
929.24799	3
929.37256	1
929.49713	3
929.62169	2
929.74626	4
929.87083	1
929.9954	4
930.11998	2
930.24455	0
930.36912	2
930.4937	-2
930.61827	8
930.74285	2
930.86742	0
930.992	3
931.11658	5
931.24116	1
931.36574	8
931.49032	1
931.6149	8
931.73949	4
931.86407	5
931.98865	5
932.11324	0
932.23783	2
932.36241	3
932.487	5
932.61159	-1
932.73618	1
932.86077	3
932.98536	5
933.10995	2
933.23455	4
933.35914	4
933.48373	3
933.60833	1
933.73293	5
933.85752	6
933.98212	3
934.10672	3
934.23132	6
934.35592	6
934.48052	-2
934.60512	2
934.72973	2
934.85433	1
934.97894	5
935.10354	4
935.22815	11
935.35276	1
935.47736	3
935.60197	2
935.72658	10
935.85119	1
935.9758	7
936.10042	1
936.22503	2
936.34964	2
936.47426	2
936.59887	5
936.72349	-2
936.84811	0
936.97272	1
937.09734	5
937.22196	3
937.34658	2
937.47121	3
937.59583	6
937.72045	1
937.84507	0
937.9697	4
938.09432	5
938.21895	2
938.34358	4
938.46821	3
938.59283	5
938.71746	-2
938.84209	-2
938.96672	2
939.09136	4
939.21599	0
939.34062	5
939.46526	5
939.58989	4
939.71453	5
939.83917	2
939.9638	-1
940.08844	2
940.21308	3
940.33772	1
940.46236	1
940.587	0
940.71165	6
940.83629	5
940.96093	-2
941.08558	5
941.21022	7
941.33487	2
941.45952	4
941.58417	3
941.70882	2
941.83347	7
941.95812	4
942.08277	4
942.20742	6
942.33207	0
942.45673	5
942.58138	3
942.70604	-3
942.83069	2
942.95535	5
943.08001	2
943.20467	1
943.32932	3
943.45398	5
943.57865	1
943.70331	-1
943.82797	1
943.95263	3
944.0773	-1
944.20196	3
944.32663	3
944.45129	2
944.57596	5
944.70063	2
944.8253	4
944.94997	2
945.07464	-3
945.19931	4
945.32398	1
945.44866	3
945.57333	6
945.698	1
945.82268	5
945.94735	2
946.07203	-2
946.19671	2
946.32139	4
946.44607	0
946.57075	6
946.69543	2
946.82011	3
946.94479	1
947.06947	3
947.19416	2
947.31884	1
947.44353	0
947.56821	1
947.6929	1
947.81759	3
947.94228	0
948.06696	4
948.19165	4
948.31635	4
948.44104	0
948.56573	5
948.69042	4
948.81512	4
948.93981	2
949.06451	2
949.1892	2
949.3139	1
949.4386	1
949.5633	3
949.68799	0
949.81269	-1
949.9374	1
950.0621	2
950.1868	2
950.3115	4
950.43621	3
950.56091	1
950.68562	2
950.81032	0
950.93503	3
951.05974	5
951.18445	2
951.30915	5
951.43386	4
951.55857	1
951.68329	3
951.808	5
951.93271	6
952.05742	4
952.18214	5
952.30685	6
952.43157	0
952.55629	4
952.681	8
952.80572	2
952.93044	3
953.05516	0
953.17988	1
953.3046	11
953.42933	1
953.55405	6
953.67877	2
953.8035	4
953.92822	4
954.05295	4
954.17767	1
954.3024	4
954.42713	6
954.55186	4
954.67659	4
954.80132	-2
954.92605	1
955.05078	5
955.17551	1
955.30024	5
955.42498	5
955.54971	1
955.67445	5
955.79918	3
955.92392	3
956.04866	7
956.1734	4
956.29814	2
956.42288	3
956.54762	3
956.67236	5
956.7971	0
956.92184	1
957.04659	4
957.17133	2
957.29607	2
957.42082	5
957.54557	-2
957.67031	2
957.79506	1
957.91981	3
958.04456	-1
958.16931	-1
958.29406	4
958.41881	5
958.54356	5
958.66832	-2
958.79307	2
958.91782	4
959.04258	3
959.16734	3
959.29209	4
959.41685	4
959.54161	5
959.66637	2
959.79113	5
959.91589	4
960.04065	0
960.16541	6
960.29017	3
960.41493	1
960.5397	2
960.66446	1
960.78923	3
960.91399	-1
961.03876	1
961.16353	2
961.28829	-1
961.41306	0
961.53783	1
961.6626	6
961.78737	4
961.91215	1
962.03692	-2
962.16169	7
962.28646	0
962.41124	4
962.53601	0
962.66079	1
962.78557	0
962.91034	3
963.03512	6
963.1599	-2
963.28468	5
963.40946	7
963.53424	7
963.65902	1
963.7838	5
